1,2,3,4,5,6,7,8,9,10,11,12,13,14,15,16,17,18,19,20,21,22,23,24,25,26,27,28,29,30,31,32,33,34,35,36,37,38,39,40,41,42,43,44,45,46,47,48,49,50,51,52,53,54,55,56,57,58,59,60,61,62,63,64,65,66,67,68,69,70,71,72,73,74,75,76,77,78,79,80,81,82,83,84,85,86,87,88,89,90,91,92,93,94,95,96,97,98,99,100,101,102,103,104,105,106,107,108,109,110,111,112,113,114,115,116,117,118,119,120,121,122,123,124,125,126,127,128,129,130,131,132,133,134,135,136,137,138,139,140,141,142,143,144,145,146,147,148,149,150,151,152,153,154,155,156,157,158,159,160,161,162,163,164,165,166,167,168,169,170,171,172,173,174,175,176,177,178,179,180,181,182,183,184,185,186,187,188,189,190,191,192,193,194,195,196,197,198,199,200,201,202,203,204,205,206,207,208,209,210,211,212,213,214,215,216,217,218,219,220,221,222,223,224,225,226,227,228,229,230,231,232,233,234,235,236,237,238,239,240,241,242,243,244,245,246,247,248,249,250,251,252,253,254,255,256,257,258,259,260,261,262,263,264,265,266,267,268,269,270,271,272,273,274,275,276,277,278,279,280,281,282,283,284,285,286,287,288,289,290,291,292,293,294,295,296,297,298,299,300,301,302,303,304,305,306,307,308,309,310,311,312,313,314,315,316,317,318,319,320,321,322,323,324,325,326,327,328,329,330,331,332,333,334,335,336,337,338,339,340,341,342,343,344,345,346,347,348,349,350,351,352,353,354,355,356,357,358,359,360,361,362,363,364,365,366,367,368,369,370,371,372,373,374,375,376,377,378,379,380,381,382,383,384,385,386,387,388,389,390,391,392,393,394,395,396,397,398,399,400,401,402,403,404,405,406,407,408,409,410,411,412,413,414,415,416,417,418,419,420,421,422,423,424,425,426,427,428,429,430,431,432,433,434,435,436,437,438,439,440,441,442,443,444,445,446,447,448,449,450,451,452,453,454,455,456,457,458,459,460,461,462,463,464,465,466,467,468,469,470,471,472,473,474,475,476,477,478,479,480,481,482,483,484,485,486,487,488,489,490,491,492,493,494,495,496,497,498,499,500,501,502,503,504,505,506,507,508,509,510,511,512,513,514,515,516,517,518,519,520,521,522,523,524,525,526,527,528,529,530,531,532,533,534,535,536,537,538,539,540,541,542,543,544,545,546,547,548,549,550,551,552,553,554,555,556,557,558,559,560,561,562,563,564,565,566,567,568,569,570,571,572,573,574,575,576,577,578,579,580,581,582,583,584,585,586,587,588,589,590,591,592,593,594,595,596,597,598,599,600,601,602,603,604,605,606,607,608,609,610,611,612,613,614,615,616,617,618,619,620,621,622,623,624,625,626,627,628,629,630,631,632,633,634,635,636,637,638,639,640,641,642,643,644,645,646,647,648,649,650,651,652,653,654,655,656,657,658,659,660,661,662,663,664,665,666,667,668,669,670,671,672,673,674,675,676,677,678,679,680,681,682,683,684,685,686,687,688,689,690,691,692,693,694,695,696,697,698,699,700,701,702,703,704,705,706,707,708,709,710,711,712,713,714,715,716,717,718,719,720,721,722,723,724,725,726,727,728,729,730,731,732,733,734,735,736,737,738,739,740,741,742,743,744,745,746,747,748,749,750,751,752,753,754,755,756,757,758,759,760,761,762,763,764,765,766,767,768,769,770,771,772,773,774,775,776,777,778,779,780,781,782,783,784,785,786,787,788,789,790,791,792,793,794,795,796,797,798,799,800,801,802,803,804,805,806,807,808,809,810,811,812,813,814,815,816,817,818,819,820,821,822,823,824,825,826,827,828,829,830,831,832,833,834,835,836,837,838,839,840,841,842,843,844,845,846,847,848,849,850,851,852,853,854,855,856,857,858,859,860,861,862,863,864,865,866,867,868,869,870,871,872,873,874,875,876,877,878,879,880,881,882,883,884,885,886,887,888,889,890,891,892,893,894,895,896,897,898,899,900,901,902,903,904,905,906,907,908,909,910,911,912,913,914,915,916,917,918,919,920,921,922,923,924,925,926,927,928,929,930,931,932,933,934,935,936,937,938,939,940,941,942,943,944,945,946,947,948,949,950,951,952,953,954,955,956,957,958,959,960,961,962,963,964,965,966,967,968,969,970,971,972,973,974,975,976,977,978,979,980,981,982,983,984,985,986,987,988,989,990,991,992,993,994,995,996,997,998,999,1000,1001,1002,1003,1004,1005,1006,1007,1008,1009,1010,1011,1012,1013,1014,1015,1016,1017,1018,1019,1020,1021,1022,1023,1024,1025,1026,1027,1028,1029,1030,1031,1032,1033,1034,1035,1036,1037,1038,1039,1040,1041,1042,1043,1044,1045,1046,1047,1048,1049,1050,1051,1052,1053,1054,1055,1056,1057,1058,1059,1060,1061,1062,1063,1064,1065,1066,1067,1068,1069,1070,1071,1072,1073,1074,1075,1076,1077,1078,1079,1080,1081,1082,1083,1084,1085,1086,1087,1088,1089,1090,1091,1092,1093,1094,1095,1096,1097,1098,1099,1100,1101,1102,1103,1104,1105,1106,1107,1108,1109,1110,1111,1112,1113,1114,1115,1116,1117,1118,1119,1120,1121,1122,1123,1124,1125,1126,1127,1128,1129,1130,1131,1132,1133,1134,1135,1136,1137,1138,1139,1140,1141,1142,1143,1144,1145,1146,1147,1148,1149,1150,1151,1152,1153,1154,1155,1156,1157,1158,1159,1160,1161,1162,1163,1164,1165,1166,1167,1168,1169,1170,1171,1172,1173,1174,1175,1176,1177,1178,1179,1180,1181,1182,1183,1184,1185,1186,1187,1188,1189,1190,1191,1192,1193,1194,1195,1196,1197,1198,1199,1200,1201,1202,1203,1204,1205,1206,1207,1208,1209,1210,1211,1212,1213,1214,1215,1216,1217,1218,1219,1220,1221,1222,1223,1224,1225,1226,1227,1228,1229,1230,1231,1232,1233,1234,1235,1236,1237,1238,1239,1240,1241,1242,1243,1244,1245,1246,1247,1248,1249,1250,1251,1252,1253,1254,1255,1256,1257,1258,1259,1260,1261,1262,1263,1264,1265,1266,1267,1268,1269,1270,1271,1272,1273,1274,1275,1276,1277,1278,1279,1280,1281,1282,1283,1284,1285,1286,1287,1288,1289,1290,1291,1292,1293,1294,1295,1296,1297,1298,1299,1300,1301,1302,1303,1304,1305,1306,1307,1308,1309,1310,1311,1312,1313,1314,1315,1316,1317,1318,1319,1320,1321,1322,1323,1324,1325,1326,1327,1328,1329,1330,1331,1332,1333,1334,1335,1336,1337,1338,1339,1340,1341,1342,1343,1344,1345,1346,1347,1348,1349,1350,1351,1352,1353,1354,1355,1356,1357,1358,1359,1360,1361,1362,1363,1364,1365,1366,1367,1368,1369,1370,1371,1372,1373,1374,1375,1376,1377,1378,1379,1380,1381,1382,1383,1384,1385,1386,1387,1388,1389,1390,1391,1392,1393,1394,1395,1396,1397,1398,1399,1400,1401,1402,1403,1404,1405,1406,1407,1408,1409,1410,1411,1412,1413,1414,1415,1416,1417,1418,1419,1420,1421,1422,1423,1424,1425,1426,1427,1428,1429,1430,1431,1432,1433,1434,1435,1436,1437,1438,1439,1440,1441,1442,1443,1444,1445,1446,1447,1448,1449,1450,1451,1452,1453,1454,1455,1456,1457,1458,1459,1460,1461,1462,1463,1464,1465,1466,1467,1468,1469,1470,1471,1472,1473,1474,1475,1476,1477,1478,1479,1480,1481,1482,1483,1484,1485,1486,1487,1488,1489,1490,1491,1492,1493,1494,1495,1496,1497,1498,1499,1500,1501,1502,1503,1504,1505,1506,1507,1508,1509,1510,1511,1512,1513,1514,1515,1516,1517,1518,1519,1520,1521,1522,1523,1524,1525,1526,1527,1528,1529,1530,1531,1532,1533,1534,1535,1536,1537,1538,1539,1540,1541,1542,1543,1544,1545,1546,1547,1548,1549,1550,1551,1552,1553,1554,1555,1556,1557,1558,1559,1560,1561,1562,1563,1564,1565,1566,1567,1568,1569,1570,1571,1572,1573,1574,1575,1576,1577,1578,1579,1580,1581,1582,1583,1584,1585,1586,1587,1588,1589,1590,1591,1592,1593,1594,1595,1596,1597,1598,1599,1600,1601,1602,1603,1604,1605,1606,1607,1608,1609,1610,1611,1612,1613,1614,1615,1616,1617,1618,1619,1620,1621,1622,1623,1624,1625,1626,1627,1628,1629,1630,1631,1632,1633,1634,1635,1636,1637,1638,1639,1640,1641,1642,1643,1644,1645,1646,1647,1648,1649,1650,1651,1652,1653,1654,1655,1656,1657,1658,1659,1660,1661,1662,1663,1664,1665,1666,1667,1668,1669,1670,1671,1672,1673,1674,1675,1676,1677,1678,1679,1680,1681,1682,1683,1684,1685,1686,1687,1688,1689,1690,1691,1692,1693,1694,1695,1696,1697,1698,1699,1700,1701,1702,1703,1704,1705,1706,1707,1708,1709,1710,1711,1712,1713,1714,1715,1716,1717,1718,1719,1720,1721,1722,1723,1724,1725,1726,1727,1728,1729,1730,1731,1732,1733,1734,1735,1736,1737,1738,1739,1740,1741,1742,1743,1744,1745,1746,1747,1748,1749,1750,1751,1752,1753,1754,1755,1756,1757,1758,1759,1760,1761,1762,1763,1764,1765,1766,1767,1768,1769,1770,1771,1772,1773,1774,1775,1776,1777,1778,1779,1780,1781,1782,1783,1784,1785,1786,1787,1788,1789,1790,1791,1792,1793,1794,1795,1796,1797,1798,1799,1800,1801,1802,1803,1804,1805,1806,1807,1808,1809,1810,1811,1812,1813,1814,1815,1816,1817,1818,1819,1820,1821,1822,1823,1824,1825,1826,1827,1828,1829,1830,1831,1832,1833,1834,1835,1836,1837,1838,1839,1840,1841,1842,1843,1844,1845,1846,1847,1848,1849,1850,1851,1852,1853,1854,1855,1856,1857,1858,1859,1860,1861,1862,1863,1864,1865,1866,1867,1868,1869,1870,1871,1872,1873,1874,1875,1876,1877,1878,1879,1880,1881,1882,1883,1884,1885,1886,1887,1888,1889,1890,1891,1892,1893,1894,1895,1896,1897,1898,1899,1900,1901,1902,1903,1904,1905,1906,1907,1908,1909,1910,1911,1912,1913,1914,1915,1916,1917,1918,1919,1920,1921,1922,1923,1924,1925,1926,1927,1928,1929,1930,1931,1932,1933,1934,1935,1936,1937,1938,1939,1940,1941,1942,1943,1944,1945,1946,1947,1948,1949,1950,1951,1952,1953,1954,1955,1956,1957,1958,1959,1960,1961,1962,1963,1964,1965,1966,1967,1968,1969,1970,1971,1972,1973,1974,1975,1976,1977,1978,1979,1980,1981,1982,1983,1984,1985,1986,1987,1988,1989,1990,1991,1992,1993,1994,1995,1996,1997,1998,1999,2000,2001,2002,2003,2004,2005,2006,2007,2008,2009,2010,2011,2012,2013,2014,2015,2016,2017,2018,2019,2020,2021,2022,2023,2024,2025,2026,2027,2028,2029,2030,2031,2032,2033,2034,2035,2036,2037,2038,2039,2040,2041,2042,2043,2044,2045,2046,2047,2048,2049,2050,2051,2052,2053,2054,2055,2056,2057,2058,2059,2060,2061,2062,2063,2064,2065,2066,2067,2068,2069,2070,2071,2072,2073,2074,2075,2076,2077,2078,2079,2080,2081,2082,2083,2084,2085,2086,2087,2088,2089,2090,2091,2092,2093,2094,2095,2096,2097,2098,2099,2100,2101,2102,2103,2104,2105,2106,2107,2108,2109,2110,2111,2112,2113,2114,2115,2116,2117,2118,2119,2120,2121,2122,2123,2124,2125,2126,2127,2128,2129,2130,2131,2132,2133,2134,2135,2136,2137,2138,2139,2140,2141,2142,2143,2144,2145,2146,2147,2148,2149,2150,2151,2152,2153,2154,2155,2156,2157,2158,2159,2160,2161,2162,2163,2164,2165,2166,2167,2168,2169,2170,2171,2172,2173,2174,2175,2176,2177,2178,2179,2180,2181,2182,2183,2184,2185,2186,2187,2188,2189,2190,2191,2192,2193,2194,2195,2196,2197,2198,2199,2200,2201,2202,2203,2204,2205,2206,2207,2208,2209,2210,2211,2212,2213,2214,2215,2216,2217,2218,2219,2220,2221,2222,2223,2224,2225,2226,2227,2228,2229,2230,2231,2232,2233,2234,2235,2236,2237,2238,2239,2240,2241,2242,2243,2244,2245,2246,2247,2248,2249,2250,2251,2252,2253,2254,2255,2256,2257,2258,2259,2260,2261,2262,2263,2264,2265,2266,2267,2268,2269,2270,2271,2272,2273,2274,2275,2276,2277,2278,2279,2280,2281,2282,2283,2284,2285,2286,2287,2288,2289,2290,2291,2292,2293,2294,2295,2296,2297,2298,2299,2300,2301,2302,2303,2304,2305,2306,2307,2308,2309,2310,2311,2312,2313,2314,2315,2316,2317,2318,2319,2320,2321,2322,2323,2324,2325,2326,2327,2328,2329,2330,2331,2332,2333,2334,2335,2336,2337,2338,2339,2340,2341,2342,2343,2344,2345,2346,2347,2348,2349,2350,2351,2352,2353,2354,2355,2356,2357,2358,2359,2360,2361,2362,2363,2364,2365,2366,2367,2368,2369,2370,2371,2372,2373,2374,2375,2376,2377,2378,2379,2380,2381,2382,2383,2384,2385,2386,2387,2388,2389,2390,2391,2392,2393,2394,2395,2396,2397,2398,2399,2400,2401,2402,2403,2404,2405,2406,2407,2408,2409,2410,2411,2412,2413,2414,2415,2416,2417,2418,2419,2420,2421,2422,2423,2424,2425,2426,2427,2428,2429,2430,2431,2432,2433,2434,2435,2436,2437,2438,2439,2440,2441,2442,2443,2444,2445,2446,2447,2448,2449,2450,2451,2452,2453,2454,2455,2456,2457,2458,2459,2460,2461,2462,2463,2464,2465,2466,2467,2468,2469,2470,2471,2472,2473,2474,2475,2476,2477,2478,2479,2480,2481,2482,2483,2484,2485,2486,2487,2488,2489,2490,2491,2492,2493,2494,2495,2496,2497,2498,2499,2500,2501,2502,2503,2504,2505,2506,2507,2508,2509,2510,2511,2512,2513,2514,2515,2516,2517,2518,2519,2520,2521,2522,2523,2524,2525,2526,2527,2528,2529,2530,2531,2532,2533,2534,2535,2536,2537,2538,2539,2540,2541,2542,2543,2544,2545,2546,2547,2548,2549,2550,2551,2552,2553,2554,2555,2556,2557,2558,2559,2560,2561,2562,2563,2564,2565,2566,2567,2568,2569,2570,2571,2572,2573,2574,2575,2576,2577,2578,2579,2580,2581,2582,2583,2584,2585,2586,2587,2588,2589,2590,2591,2592,2593,2594,2595,2596,2597,2598,2599,2600,2601,2602,2603,2604,2605,2606,2607,2608,2609,2610,2611,2612,2613,2614,2615,2616,2617,2618,2619,2620,2621,2622,2623,2624,2625,2626,2627,2628,2629,2630,2631,2632,2633,2634,2635,2636,2637,2638,2639,2640,2641,2642,2643,2644,2645,2646,2647,2648,2649,2650,2651,2652,2653,2654,2655,2656,2657,2658,2659,2660,2661,2662,2663,2664,2665,2666,2667,2668,2669,2670,2671,2672,2673,2674,2675,2676,2677,2678,2679,2680,2681,2682,2683,2684,2685,2686,2687,2688,2689,2690,2691,2692,2693,2694,2695,2696,2697,2698,2699,2700,2701,2702,2703,2704,2705,2706,2707,2708,2709,2710,2711,2712,2713,2714,2715,2716,2717,2718,2719,2720,2721,2722,2723,2724,2725,2726,2727,2728,2729,2730,2731,2732,2733,2734,2735,2736,2737,2738,2739,2740,2741,2742,2743,2744,2745,2746,2747,2748,2749,2750,2751,2752,2753,2754,2755,2756,2757,2758,2759,2760,2761,2762,2763,2764,2765,2766,2767,2768,2769,2770,2771,2772,2773,2774,2775,2776,2777,2778,2779,2780,2781,2782,2783,2784,2785,2786,2787,2788,2789,2790,2791,2792,2793,2794,2795,2796,2797,2798,2799,2800,2801,2802,2803,2804,2805,2806,2807,2808,2809,2810,2811,2812,2813,2814,2815,2816,2817,2818,2819,2820,2821,2822,2823,2824,2825,2826,2827,2828,2829,2830,2831,2832,2833,2834,2835,2836,2837,2838,2839,2840,2841,2842,2843,2844,2845,2846,2847,2848,2849,2850,2851,2852,2853,2854,2855,2856,2857,2858,2859,2860,2861,2862,2863,2864,2865,2866,2867,2868,2869,2870,2871,2872,2873,2874,2875,2876,2877,2878,2879,2880,2881,2882,2883,2884,2885,2886,2887,2888,2889,2890,2891,2892,2893,2894,2895,2896,2897,2898,2899,2900,2901,2902,2903,2904,2905,2906,2907,2908,2909,2910,2911,2912,2913,2914,2915,2916,2917,2918,2919,2920,2921,2922,2923,2924,2925,2926,2927,2928,2929,2930,2931,2932,2933,2934,2935,2936,2937,2938,2939,2940,2941,2942,2943,2944,2945,2946,2947,2948,2949,2950,2951,2952,2953,2954,2955,2956,2957,2958,2959,2960,2961,2962,2963,2964,2965,2966,2967,2968,2969,2970,2971,2972,2973,2974,2975,2976,2977,2978,2979,2980,2981,2982,2983,2984,2985,2986,2987,2988,2989,2990,2991,2992,2993,2994,2995,2996,2997,2998,2999,3000,stress_score,anxiety_score,depression_score
2713,2710,2706,2704,2700,2700,2697,2694,2692,2691,2689,2688,2686,2684,2682,2680,2677,2674,2670,2667,2665,2664,2666,2668,2673,2678,2687,2694,2705,2714,2727,2734,2742,2747,2752,2753,2756,2756,2758,2757,2760,2759,2762,2763,2765,2763,2764,2762,2759,2756,2753,2748,2743,2739,2735,2731,2727,2725,2723,2722,2718,2716,2712,2709,2702,2699,2694,2690,2683,2680,2673,2671,2666,2663,2659,2656,2652,2650,2647,2646,2641,2640,2637,2635,2632,2630,2628,2625,2624,2625,2629,2635,2643,2651,2662,2672,2687,2697,2710,2719,2727,2732,2737,2738,2741,2741,2745,2744,2748,2749,2752,2751,2754,2753,2754,2751,2752,2749,2747,2743,2741,2738,2734,2730,2726,2724,2720,2715,2709,2706,2701,2696,2689,2686,2680,2677,2669,2666,2660,2658,2653,2652,2648,2647,2644,2641,2638,2637,2632,2630,2627,2626,2624,2627,2630,2637,2646,2657,2669,2682,2695,2708,2722,2732,2741,2747,2753,2756,2759,2760,2764,2765,2767,2767,2770,2769,2770,2768,2769,2765,2763,2757,2755,2750,2748,2744,2741,2736,2732,2726,2721,2716,2711,2704,2697,2691,2685,2679,2672,2668,2662,2657,2650,2647,2642,2639,2632,2629,2623,2620,2614,2612,2606,2604,2599,2597,2591,2590,2587,2586,2584,2586,2587,2593,2600,2609,2620,2635,2650,2665,2682,2697,2712,2724,2735,2742,2749,2752,2757,2757,2761,2761,2763,2762,2764,2762,2764,2760,2758,2754,2752,2746,2744,2738,2735,2730,2727,2723,2722,2718,2714,2710,2707,2702,2698,2693,2688,2684,2678,2675,2670,2668,2663,2661,2658,2657,2653,2652,2647,2647,2643,2641,2636,2635,2631,2628,2625,2627,2629,2636,2642,2652,2663,2675,2687,2699,2710,2721,2731,2737,2744,2747,2750,2752,2754,2753,2756,2755,2757,2755,2755,2752,2750,2744,2742,2736,2734,2726,2722,2716,2713,2708,2706,2704,2703,2700,2698,2695,2694,2690,2687,2684,2680,2677,2672,2669,2665,2662,2657,2655,2651,2649,2644,2641,2638,2637,2633,2632,2628,2627,2623,2623,2621,2623,2626,2632,2639,2649,2660,2671,2685,2698,2709,2720,2730,2738,2743,2747,2748,2750,2751,2750,2752,2753,2755,2753,2754,2751,2752,2748,2746,2742,2738,2732,2729,2723,2720,2715,2711,2707,2705,2699,2696,2691,2688,2682,2678,2672,2667,2663,2658,2652,2648,2643,2638,2633,2627,2623,2618,2616,2610,2608,2603,2600,2596,2593,2588,2588,2584,2583,2579,2579,2579,2584,2589,2600,2611,2626,2639,2656,2670,2686,2700,2713,2721,2728,2733,2736,2738,2738,2739,2740,2742,2741,2743,2741,2741,2739,2739,2736,2733,2729,2726,2721,2720,2717,2716,2713,2712,2708,2707,2704,2702,2700,2696,2691,2689,2685,2682,2677,2674,2671,2669,2665,2661,2660,2657,2654,2651,2649,2646,2644,2639,2636,2632,2631,2627,2630,2632,2639,2645,2656,2666,2679,2690,2704,2716,2727,2735,2742,2745,2749,2750,2753,2754,2754,2756,2757,2757,2757,2758,2757,2756,2752,2750,2746,2743,2740,2736,2732,2729,2726,2724,2721,2719,2716,2715,2710,2708,2704,2701,2699,2697,2693,2691,2687,2685,2681,2678,2675,2672,2668,2665,2662,2659,2657,2654,2652,2649,2647,2645,2643,2640,2638,2635,2634,2634,2639,2643,2652,2663,2676,2687,2701,2713,2726,2738,2749,2754,2763,2765,2767,2766,2766,2766,2765,2763,2761,2759,2754,2751,2746,2743,2738,2734,2728,2725,2719,2715,2709,2706,2701,2698,2693,2690,2687,2684,2678,2674,2669,2666,2660,2657,2652,2648,2643,2639,2635,2632,2630,2627,2625,2623,2621,2619,2619,2618,2617,2616,2614,2612,2609,2606,2605,2602,2602,2598,2596,2592,2591,2590,2594,2598,2607,2616,2629,2641,2656,2672,2687,2701,2714,2723,2730,2735,2739,2742,2744,2744,2744,2745,2745,2746,2745,2745,2743,2740,2737,2735,2731,2728,2724,2723,2720,2719,2717,2716,2715,2714,2711,2710,2707,2705,2699,2696,2691,2686,2681,2678,2673,2668,2666,2661,2657,2654,2650,2648,2646,2641,2639,2636,2634,2630,2628,2624,2624,2625,2628,2633,2641,2651,2663,2675,2690,2704,2719,2730,2742,2749,2756,2760,2762,2764,2766,2767,2766,2767,2767,2768,2767,2766,2762,2760,2754,2750,2744,2740,2734,2730,2723,2720,2716,2713,2708,2706,2701,2699,2694,2690,2684,2682,2676,2672,2667,2666,2662,2658,2655,2653,2651,2648,2646,2644,2643,2640,2637,2636,2634,2631,2631,2627,2626,2623,2621,2617,2616,2612,2612,2609,2609,2607,2610,2614,2623,2635,2649,2664,2682,2698,2716,2732,2747,2759,2769,2776,2779,2781,2781,2782,2782,2783,2783,2785,2784,2786,2784,2783,2781,2778,2774,2771,2766,2765,2760,2758,2752,2751,2747,2745,2742,2739,2734,2732,2726,2721,2715,2711,2706,2701,2695,2689,2683,2677,2672,2668,2664,2658,2655,2651,2647,2643,2640,2635,2635,2632,2631,2628,2626,2620,2616,2611,2608,2602,2598,2592,2587,2581,2580,2581,2584,2591,2601,2613,2629,2645,2662,2679,2695,2708,2720,2729,2734,2741,2742,2744,2744,2745,2746,2748,2749,2752,2752,2753,2752,2750,2747,2745,2741,2738,2734,2731,2728,2726,2723,2722,2720,2718,2716,2712,2708,2706,2701,2697,2693,2688,2684,2678,2675,2671,2669,2664,2660,2656,2653,2649,2647,2644,2642,2637,2634,2631,2626,2623,2620,2615,2613,2610,2607,2604,2603,2602,2605,2611,2619,2631,2645,2659,2674,2692,2708,2724,2738,2749,2756,2763,2765,2767,2766,2766,2763,2764,2762,2763,2762,2760,2756,2755,2750,2747,2744,2741,2735,2731,2726,2723,2721,2718,2715,2713,2711,2706,2702,2699,2695,2691,2686,2681,2679,2674,2671,2668,2667,2664,2662,2658,2656,2653,2650,2647,2647,2643,2642,2638,2637,2634,2632,2630,2630,2629,2630,2634,2641,2652,2663,2678,2696,2712,2727,2743,2756,2768,2776,2782,2784,2786,2784,2783,2782,2783,2781,2782,2781,2780,2777,2776,2772,2769,2765,2761,2756,2753,2748,2745,2743,2741,2739,2737,2734,2730,2726,2723,2720,2714,2710,2705,2700,2696,2694,2689,2686,2684,2681,2676,2674,2670,2668,2665,2662,2658,2656,2652,2647,2643,2639,2635,2632,2627,2621,2617,2612,2607,2604,2600,2595,2592,2589,2586,2585,2588,2594,2603,2616,2631,2648,2667,2686,2707,2727,2745,2759,2772,2780,2785,2788,2791,2792,2793,2793,2794,2794,2794,2792,2791,2788,2784,2779,2772,2766,2759,2753,2747,2741,2735,2730,2726,2722,2718,2713,2709,2704,2699,2694,2688,2682,2678,2674,2669,2665,2663,2660,2656,2654,2650,2648,2645,2641,2636,2630,2625,2619,2613,2609,2603,2598,2592,2587,2584,2581,2579,2575,2573,2571,2569,2570,2573,2580,2589,2599,2614,2631,2650,2668,2687,2704,2720,2731,2741,2749,2754,2755,2754,2752,2750,2750,2750,2749,2748,2745,2741,2739,2736,2732,2729,2725,2721,2718,2714,2710,2710,2708,2705,2702,2700,2698,2696,2692,2690,2687,2685,2680,2679,2676,2674,2671,2668,2665,2660,2654,2648,2640,2633,2623,2614,2605,2596,2588,2578,2572,2569,2569,2572,2580,2589,2602,2617,2631,2648,2665,2682,2695,2708,2717,2723,2728,2731,2734,2737,2739,2740,2742,2743,2744,2743,2744,2742,2740,2737,2736,2732,2728,2725,2722,2718,2716,2713,2709,2706,2702,2697,2694,2689,2684,2678,2673,2667,2663,2661,2657,2654,2651,2647,2643,2640,2637,2636,2633,2630,2627,2626,2624,2622,2621,2619,2619,2618,2616,2615,2615,2612,2609,2609,2608,2609,2613,2619,2627,2639,2653,2667,2684,2700,2715,2731,2744,2752,2760,2764,2766,2768,2767,2767,2768,2769,2769,2770,2772,2773,2772,2770,2768,2764,2759,2754,2748,2743,2737,2732,2728,2725,2721,2717,2714,2709,2705,2701,2696,2691,2685,2680,2674,2669,2663,2658,2655,2652,2648,2645,2642,2638,2634,2631,2628,2625,2621,2618,2616,2613,2611,2609,2608,2604,2602,2599,2597,2597,2598,2600,2605,2613,2624,2635,2651,2666,2679,2693,2706,2717,2724,2729,2733,2736,2736,2735,2735,2735,2736,2735,2735,2736,2736,2734,2732,2732,2729,2726,2723,2721,2717,2717,2715,2713,2713,2711,2710,2708,2707,2706,2703,2701,2698,2695,2692,2688,2686,2683,2682,2679,2676,2674,2671,2669,2667,2664,2662,2660,2658,2656,2655,2654,2655,2656,2660,2667,2675,2684,2696,2708,2720,2731,2744,2754,2762,2769,2774,2777,2779,2780,2781,2780,2781,2782,2781,2780,2778,2775,2772,2768,2764,2760,2757,2753,2748,2744,2740,2738,2735,2733,2730,2727,2723,2719,2712,2710,2704,2700,2697,2692,2688,2686,2681,2679,2676,2673,2669,2667,2663,2660,2657,2652,2648,2645,2641,2637,2632,2629,2627,2624,2620,2618,2615,2612,2611,2609,2611,2615,2620,2630,2640,2652,2666,2678,2693,2706,2720,2729,2737,2742,2746,2748,2750,2752,2753,2753,2754,2753,2754,2754,2752,2749,2745,2742,2739,2735,2731,2726,2722,2718,2714,2713,2709,2706,2702,2700,2697,2695,2691,2689,2684,2682,2676,2672,2668,2664,2659,2654,2649,2645,2641,2637,2633,2631,2627,2625,2621,2619,2617,2613,2612,2611,2609,2608,2608,2607,2607,2608,2613,2619,2630,2641,2654,2666,2681,2694,2709,2722,2732,2740,2747,2750,2752,2754,2756,2755,2756,2756,2759,2760,2761,2760,2759,2758,2756,2753,2750,2748,2744,2742,2740,2739,2737,2736,2733,2731,2727,2726,2722,2720,2714,2712,2705,2701,2697,2693,2690,2687,2683,2681,2679,2677,2674,2674,2672,2669,2667,2666,2664,2664,2662,2661,2662,2666,2671,2677,2688,2698,2710,2719,2730,2741,2750,2756,2763,2766,2769,2770,2772,2771,2772,2771,2772,2771,2769,2768,2765,2763,2760,2756,2753,2752,2749,2746,2742,2740,2739,2737,2731,2728,2725,2721,2715,2710,2703,2699,2692,2685,2680,2676,2671,2666,2660,2656,2651,2647,2642,2639,2634,2629,2624,2620,2615,2609,2606,2601,2596,2593,2590,2586,2583,2579,2578,2580,2585,2593,2603,2613,2626,2637,2649,2661,2673,2682,2690,2693,2697,2699,2702,2702,2706,2709,2713,2717,2721,2722,2726,2726,2727,2726,2724,2722,2719,2716,2713,2711,2707,2706,2705,2703,2702,2701,2699,2698,2696,2693,2690,2689,2685,2683,2677,2675,2672,2668,2665,2663,2659,2656,2654,2652,2649,2646,2643,2640,2638,2634,2631,2628,2626,2622,2620,2618,2616,2613,2611,2611,2613,2617,2624,2633,2646,2659,2671,2684,2700,2711,2722,2733,2740,2743,2747,2749,2751,2753,2754,2755,2758,2758,2759,2761,2761,2758,2755,2753,2749,2747,2744,2742,2739,2736,2733,2732,2729,2727,2723,2720,2715,2712,2708,2705,2699,2694,2690,2686,2682,2679,2676,2674,2671,2669,2665,2664,2660,2658,2656,2652,2650,2646,2643,2640,2638,2638,2640,2644,2650,2658,2668,2679,2691,2702,2714,2724,2733,2740,2745,2747,2751,2751,2753,2753,2755,2755,2756,2756,2756,2756,2754,2751,2748,2745,2743,2739,2736,2733,2731,2728,2725,2726,2724,2723,2720,2718,2715,2710,2706,2702,2697,2693,2687,2684,2679,2675,2669,2666,2663,2660,2657,2656,2653,2650,2646,2642,2639,2636,2632,2628,2625,2620,2615,2612,2610,2606,2603,2599,2596,2594,2594,2594,2599,2604,2613,2624,2639,2655,2671,2689,2705,2721,2734,2746,2755,2761,2767,2770,2771,2773,2776,2778,2780,2783,2784,2784,2783,2780,2775,2770,2762,2756,2748,2740,2731,2724,2716,2710,2702,2697,2691,2686,2680,2675,2669,2664,2659,2655,2651,2648,2643,2641,2638,2636,2632,2630,2626,2623,2620,2616,2614,2611,2609,2606,2604,2602,2600,2599,2596,2595,2594,2593,2591,2591,2593,2596,2602,2612,2623,2636,2651,2668,2684,2700,2715,2728,2740,2749,2755,2761,2764,2766,2766,2768,2768,2770,2771,2772,2771,2770,2768,2766,2764,2763,2761,2759,2757,2756,2754,2753,2751,2751,2750,2748,2744,2740,2735,2730,2725,2720,2714,2709,2703,2698,2694,2690,2687,2683,2679,2676,2673,2669,2666,2661,2657,2652,2648,2643,2640,2636,2633,2633,2635,2640,2646,2654,2663,2673,2684,2694,2705,2715,2722,2727,2731,2735,2737,2739,2740,2740,2742,2743,2742,2743,2742,2738,2736,2734,2731,2728,2724,2720,2717,2714,2710,2706,2704,2701,2700,2698,2695,2693,2691,2687,2685,2684,2683,2679,2677,2674,2671,2670,2667,2666,2664,2661,2657,2656,2653,2649,2646,2643,2638,2634,2628,2625,2621,2617,2613,2611,2607,2608,2608,2613,2620,2630,2643,2658,2676,2695,2715,2735,2753,2770,2782,2794,2802,2809,2814,2817,2819,2821,2823,2825,2827,2829,2829,2830,2829,2828,2827,2825,2822,2818,2815,2810,2806,2803,2799,2794,2789,2783,2776,2769,2761,2753,2743,2734,2723,2713,2704,2695,2684,2674,2665,2655,2646,2637,2630,2623,2615,2608,2601,2595,2589,2584,2581,2578,2574,2569,2565,2561,2557,2555,2554,2553,2557,2563,2570,2582,2595,2610,2628,2647,2664,2680,2696,2708,2718,2726,2733,2739,2743,2746,2749,2752,2755,2757,2757,2757,2756,2754,2753,2749,2745,2741,2737,2733,2731,2727,2726,2723,2721,2718,2716,2712,2708,2704,2701,2695,2691,2687,2682,2678,2674,2671,2667,2664,2661,2659,2657,2654,2651,2650,2648,2645,2642,2640,2639,2639,2642,2646,2653,2662,2672,2685,2699,2711,2725,2738,2748,2757,2765,2771,2775,2777,2779,2780,2781,2782,2784,2784,2784,2783,2779,2776,2774,2770,2768,2764,2761,2758,2755,2752,2748,2746,2743,2740,2736,2731,2727,2721,2718,2711,2705,2700,2694,2689,2686,2680,2675,2671,2668,2664,2660,2656,2653,2651,2646,2642,2637,2634,2630,2626,2620,2618,2614,2611,2610,2610,2613,2621,2628,2639,2650,2665,2676,2692,2705,2719,2730,2739,2744,2750,2752,2755,2757,2759,2760,2762,2763,2764,2765,2764,2764,2762,2760,2756,2753,2749,2747,2743,2740,2736,2732,2729,2727,2722,2720,2715,2711,2706,2701,2695,2692,2686,2682,2677,2672,2667,2663,2659,2655,2650,2646,2642,2639,2634,2630,2625,2620,2616,2611,2606,2601,2598,2594,2591,2587,2583,2581,2578,2576,2576,2573,2572,2570,2570,2573,2579,2588,2600,2613,2628,2642,2660,2676,2691,2703,2714,2722,2727,2730,2733,2735,2735,2737,2739,2741,2742,2744,2744,2744,2740,2739,2733,2731,2726,2724,2719,2718,2714,2713,2710,2711,2709,2707,2705,2702,2697,2694,2690,2685,2680,2675,2669,2665,2663,2658,2654,2650,2647,2642,2640,2636,2633,2631,2628,2625,2624,2621,2620,2617,2615,2613,2611,2607,2606,2602,2602,2601,2605,2610,2621,2631,2644,2658,2674,2691,2708,2724,2737,2749,2756,2762,2767,2771,2773,2776,2777,2778,2781,2782,2782,2783,2782,2781,2779,2777,2772,2770,2765,2762,2758,2756,2753,2751,2747,2745,2741,2739,2735,2732,2727,2722,2717,2711,2705,2700,2695,2690,2686,2679,2676,2671,2666,2661,2658,2652,2648,2642,2639,2634,2631,2625,2622,2616,2611,2608,2606,2605,2606,2610,2619,2630,2641,2653,2669,2684,2698,2711,2722,2731,2738,2742,2745,2747,2749,2751,2751,2753,2755,2757,2757,2757,2754,2754,2751,2749,2747,2744,2740,2738,2734,2732,2729,2728,2726,2724,2720,2717,2713,2709,2703,2698,2692,2687,2682,2676,2672,2666,2661,2657,2652,2649,2646,2644,2641,2636,2635,2630,2628,2625,2623,2620,2617,2612,2610,2606,2603,2598,2596,2590,2586,2580,2575,2570,2568,2568,2571,2577,2585,2598,2611,2629,2646,2665,2681,2696,2707,2717,2724,2730,2732,2736,2735,2739,2740,2744,2745,2748,2748,2751,2748,2750,2747,2745,2740,2738,2734,2730,2726,2723,2720,2718,2714,2711,2708,2704,2701,2697,2695,2691,2689,2685,2683,2679,2679,2675,2674,2670,2668,2664,2663,2658,2657,2653,2650,2646,2643,2638,2636,2631,2629,2624,2621,2618,2616,2619,2624,2632,2643,2655,2667,2681,2695,2709,2722,2733,2741,2749,2752,2758,2758,2761,2761,2765,2764,2765,2766,2766,2764,2765,2761,2760,2756,2753,2750,2748,2744,2742,2740,2737,2734,2732,2729,2726,2723,2720,2716,2712,2709,2704,2702,2697,2695,2690,2687,2682,2679,2674,2672,2665,2664,2658,2654,2650,2648,2644,2642,2636,2634,2630,2626,2621,2617,2614,2611,2610,2613,2617,2625,2635,2646,2660,2675,2689,2703,2716,2725,2734,2738,2743,2745,2748,2747,2750,2750,2752,2751,2754,2753,2754,2751,2749,2747,2745,2740,2735,2731,2727,2723,2720,2716,2714,2709,2706,2703,2700,2698,2694,2689,2683,2680,2672,2669,2664,2659,2653,2648,2641,2639,2634,2631,2626,2625,2619,2616,2613,2611,2609,2607,2603,2601,2598,2596,2594,2594,2592,2589,2587,2586,2584,2582,2581,2581,2583,2587,2596,2605,2619,2633,2649,2663,2681,2695,2711,2721,2731,2736,2740,2740,2741,2742,2743,2744,2746,2746,2748,2746,2748,2749,2747,2744,2742,2740,2736,2732,2728,2727,2722,2720,2716,2714,2711,2709,2703,2701,2695,2691,2685,2681,2675,2673,2668,2666,2662,2659,2656,2654,2652,2651,2648,2647,2642,2640,2636,2633,2631,2628,2625,2621,2622,2623,2628,2635,2644,2653,2665,2675,2689,2699,2712,2719,2729,2732,2736,2737,2740,2739,2741,2739,2740,2739,2742,2740,2738,2736,2732,2727,2725,2721,2718,2714,2710,2707,2705,2705,2703,2703,2703,2703,2700,2700,2698,2697,2690,2687,2682,2680,2674,2671,2665,2662,2657,2655,2651,2651,2648,2646,2642,2640,2637,2637,2634,2633,2630,2627,2625,2622,2620,2617,2615,2613,2616,2620,2627,2635,2645,2656,2669,2680,2694,2703,2715,2719,2725,6,2,0
2717,2711,2710,2705,2705,2703,2704,2702,2702,2700,2699,2695,2694,2687,2684,2677,2671,2664,2659,2652,2645,2639,2631,2626,2620,2616,2610,2608,2601,2597,2594,2593,2590,2591,2588,2588,2585,2586,2584,2585,2582,2580,2576,2574,2569,2568,2570,2575,2579,2588,2597,2610,2622,2635,2649,2663,2676,2686,2694,2699,2704,2708,2714,2717,2722,2723,2729,2731,2736,2739,2743,2743,2745,2743,2743,2742,2742,2739,2740,2738,2736,2735,2735,2733,2731,2729,2725,2719,2716,2711,2705,2701,2695,2691,2684,2679,2672,2668,2661,2657,2650,2646,2638,2634,2628,2627,2622,2620,2615,2614,2610,2608,2604,2602,2599,2598,2594,2593,2590,2587,2583,2580,2577,2575,2574,2575,2578,2582,2591,2600,2614,2628,2645,2658,2677,2691,2707,2717,2730,2737,2745,2749,2754,2758,2762,2761,2764,2763,2763,2761,2760,2756,2755,2753,2752,2750,2750,2751,2751,2751,2753,2754,2753,2753,2750,2748,2742,2737,2729,2725,2717,2710,2702,2696,2687,2683,2674,2670,2664,2659,2652,2648,2642,2640,2634,2631,2626,2624,2620,2617,2614,2611,2610,2606,2603,2600,2600,2599,2601,2606,2613,2621,2632,2641,2655,2667,2680,2689,2701,2709,2716,2719,2724,2727,2731,2731,2733,2734,2737,2738,2739,2737,2738,2737,2734,2732,2731,2729,2727,2725,2724,2724,2723,2722,2720,2719,2716,2714,2709,2706,2700,2694,2687,2681,2674,2669,2662,2658,2650,2646,2640,2636,2630,2626,2622,2620,2615,2613,2610,2607,2604,2601,2600,2597,2594,2590,2588,2587,2589,2593,2599,2608,2620,2632,2648,2663,2681,2696,2713,2725,2738,2746,2753,2759,2766,2769,2773,2776,2780,2782,2787,2789,2793,2795,2797,2797,2796,2796,2795,2792,2790,2787,2782,2780,2775,2773,2768,2766,2761,2757,2754,2753,2750,2748,2744,2742,2738,2735,2730,2725,2716,2709,2699,2692,2683,2675,2666,2659,2653,2648,2644,2643,2641,2640,2639,2636,2635,2631,2629,2624,2621,2615,2611,2607,2609,2611,2616,2624,2638,2650,2667,2683,2703,2719,2736,2751,2764,2776,2787,2794,2802,2806,2811,2814,2817,2818,2820,2821,2821,2821,2821,2820,2818,2818,2816,2814,2812,2810,2806,2803,2798,2794,2787,2783,2775,2770,2763,2755,2745,2739,2731,2724,2717,2711,2706,2700,2693,2687,2681,2676,2671,2666,2661,2656,2652,2648,2645,2640,2638,2635,2634,2631,2629,2623,2619,2614,2611,2606,2606,2605,2608,2612,2621,2632,2646,2660,2677,2693,2710,2724,2735,2744,2751,2756,2760,2761,2763,2763,2762,2761,2760,2760,2758,2758,2754,2752,2748,2745,2740,2739,2737,2736,2732,2731,2728,2728,2725,2722,2718,2714,2708,2704,2697,2691,2684,2677,2670,2666,2661,2655,2650,2645,2639,2634,2629,2624,2620,2614,2609,2605,2602,2598,2595,2592,2591,2589,2591,2592,2598,2603,2612,2622,2632,2644,2656,2667,2678,2688,2697,2702,2706,2708,2711,2711,2712,2713,2712,2713,2713,2714,2714,2713,2711,2711,2709,2709,2707,2708,2708,2709,2708,2710,2709,2711,2710,2709,2706,2705,2699,2694,2687,2681,2673,2667,2660,2654,2649,2642,2637,2633,2629,2626,2624,2624,2623,2622,2621,2621,2622,2621,2620,2619,2617,2615,2611,2608,2605,2603,2601,2600,2602,2607,2614,2622,2634,2649,2661,2676,2691,2703,2716,2726,2734,2740,2745,2748,2752,2756,2757,2759,2762,2763,2764,2764,2763,2762,2760,2758,2754,2751,2748,2745,2745,2743,2741,2741,2739,2737,2735,2733,2731,2728,2725,2722,2720,2718,2714,2711,2707,2704,2700,2696,2691,2687,2682,2676,2671,2667,2663,2660,2656,2653,2650,2648,2645,2643,2641,2638,2634,2631,2628,2625,2622,2621,2619,2619,2623,2629,2637,2649,2663,2680,2699,2719,2740,2760,2778,2793,2803,2809,2810,2808,2802,2794,2782,2771,2761,2750,2742,2737,2731,2729,2727,2726,2727,2727,2728,2730,2732,2735,2739,2744,2750,2758,2766,2771,2778,2781,2783,2782,2778,2772,2764,2754,2743,2733,2721,2709,2697,2688,2680,2674,2670,2667,2662,2659,2655,2654,2652,2651,2647,2643,2638,2633,2630,2628,2627,2629,2632,2638,2647,2659,2671,2685,2698,2711,2724,2734,2743,2750,2755,2757,2760,2760,2759,2757,2756,2751,2748,2744,2738,2733,2729,2726,2723,2721,2722,2723,2725,2727,2730,2731,2733,2733,2731,2727,2721,2714,2706,2697,2689,2680,2670,2662,2653,2645,2637,2632,2623,2618,2612,2606,2602,2597,2593,2589,2585,2583,2579,2579,2577,2579,2584,2591,2601,2615,2630,2648,2667,2686,2704,2721,2734,2745,2753,2758,2761,2762,2760,2759,2758,2755,2752,2748,2745,2741,2737,2732,2730,2724,2721,2717,2714,2713,2712,2711,2711,2710,2709,2708,2708,2704,2702,2699,2695,2690,2686,2682,2675,2669,2662,2654,2646,2640,2635,2630,2624,2621,2619,2619,2619,2622,2625,2629,2633,2636,2639,2644,2648,2652,2658,2665,2671,2684,2694,2708,2722,2737,2749,2763,2775,2784,2793,2799,2802,2804,2805,2805,2805,2805,2805,2804,2802,2801,2798,2793,2789,2783,2779,2772,2769,2763,2760,2756,2753,2749,2748,2744,2741,2736,2732,2724,2716,2708,2701,2692,2683,2674,2667,2658,2650,2643,2636,2630,2624,2620,2617,2615,2611,2610,2609,2610,2609,2610,2608,2607,2604,2601,2597,2594,2589,2585,2579,2578,2577,2581,2586,2597,2607,2621,2635,2650,2667,2685,2701,2716,2728,2737,2746,2752,2759,2764,2768,2771,2775,2776,2780,2779,2781,2778,2778,2775,2771,2767,2763,2758,2753,2747,2743,2737,2734,2729,2725,2721,2716,2711,2706,2701,2696,2690,2686,2681,2677,2671,2667,2662,2655,2649,2643,2640,2632,2628,2622,2619,2613,2609,2605,2603,2598,2597,2592,2592,2588,2586,2582,2581,2576,2575,2572,2570,2569,2570,2570,2573,2579,2587,2599,2614,2631,2650,2669,2685,2704,2721,2736,2746,2757,2762,2769,2770,2774,2775,2778,2778,2781,2782,2784,2782,2783,2781,2780,2778,2777,2775,2774,2770,2770,2769,2768,2768,2766,2764,2760,2757,2752,2747,2741,2735,2726,2718,2708,2703,2693,2688,2678,2670,2664,2660,2654,2650,2643,2639,2634,2632,2627,2624,2622,2618,2615,2614,2612,2612,2614,2617,2623,2632,2643,2656,2673,2688,2705,2723,2741,2754,2767,2773,2779,2781,2782,2778,2776,2770,2765,2758,2754,2748,2746,2742,2739,2735,2734,2731,2730,2728,2728,2726,2727,2727,2726,2725,2723,2722,2720,2719,2714,2711,2705,2699,2691,2684,2675,2670,2663,2658,2650,2648,2642,2639,2635,2634,2631,2631,2628,2625,2624,2625,2622,2624,2623,2623,2621,2619,2617,2615,2612,2608,2608,2609,2613,2618,2629,2642,2659,2677,2698,2719,2739,2756,2773,2784,2797,2802,2807,2810,2813,2811,2812,2809,2808,2803,2799,2793,2788,2780,2771,2763,2755,2747,2740,2735,2732,2730,2727,2726,2723,2720,2716,2713,2707,2703,2694,2687,2677,2671,2659,2653,2643,2638,2629,2623,2616,2612,2606,2602,2598,2596,2593,2592,2589,2588,2587,2585,2583,2582,2580,2578,2575,2571,2568,2565,2563,2559,2560,2560,2566,2574,2587,2600,2621,2639,2665,2686,2712,2731,2754,2768,2783,2791,2800,2805,2809,2809,2811,2812,2814,2814,2815,2816,2815,2814,2811,2809,2807,2803,2798,2794,2788,2783,2777,2773,2768,2764,2758,2751,2743,2738,2728,2722,2710,2704,2693,2685,2674,2666,2657,2651,2643,2638,2630,2624,2617,2612,2606,2600,2595,2590,2586,2581,2578,2573,2571,2568,2566,2563,2562,2560,2563,2565,2572,2580,2592,2604,2622,2638,2658,2674,2692,2707,2720,2728,2736,2741,2744,2743,2743,2742,2742,2740,2739,2738,2736,2736,2735,2734,2732,2735,2734,2737,2738,2741,2741,2745,2744,2747,2746,2746,2741,2739,2731,2727,2718,2713,2702,2694,2685,2677,2669,2662,2655,2649,2643,2640,2635,2632,2629,2626,2624,2620,2618,2615,2614,2610,2610,2611,2615,2619,2629,2637,2651,2665,2683,2697,2716,2730,2745,2755,2765,2770,2778,2781,2786,2787,2789,2790,2790,2792,2794,2795,2797,2796,2794,2792,2789,2788,2786,2785,2783,2781,2778,2776,2773,2773,2767,2767,2761,2757,2750,2746,2737,2732,2722,2713,2703,2696,2685,2676,2667,2658,2649,2643,2637,2634,2631,2626,2624,2620,2618,2618,2618,2616,2618,2617,2622,2627,2636,2646,2662,2674,2691,2706,2723,2738,2754,2764,2774,2779,2784,2786,2788,2785,2786,2781,2778,2774,2770,2766,2761,2757,2751,2747,2742,2739,2735,2732,2729,2725,2722,2720,2714,2711,2704,2700,2693,2688,2679,2672,2664,2656,2648,2642,2635,2629,2620,2616,2609,2604,2599,2595,2590,2585,2579,2574,2569,2562,2555,2549,2545,2540,2536,2531,2531,2527,2528,2526,2530,2532,2540,2546,2559,2572,2590,2608,2631,2651,2673,2692,2714,2728,2744,2755,2766,2773,2780,2784,2789,2793,2797,2802,2804,2806,2805,2804,2802,2799,2794,2791,2785,2780,2774,2772,2768,2764,2758,2755,2749,2746,2738,2733,2724,2717,2706,2698,2689,2681,2673,2667,2659,2652,2644,2639,2632,2625,2621,2618,2615,2613,2610,2608,2609,2607,2607,2605,2605,2601,2599,2593,2590,2583,2579,2571,2568,2563,2564,2566,2574,2582,2596,2611,2632,2651,2675,2697,2719,2737,2754,2767,2779,2788,2794,2800,2803,2806,2808,2811,2810,2810,2808,2807,2801,2798,2791,2786,2777,2773,2768,2766,2761,2761,2757,2758,2755,2754,2750,2748,2742,2736,2728,2722,2712,2703,2694,2685,2678,2670,2662,2654,2647,2640,2634,2627,2624,2617,2614,2610,2608,2604,2604,2601,2602,2600,2598,2595,2593,2587,2583,2576,2573,2566,2564,2561,2564,2569,2578,2589,2605,2622,2641,2662,2682,2702,2720,2735,2748,2761,2768,2775,2780,2786,2788,2793,2793,2796,2793,2792,2785,2783,2776,2772,2766,2764,2759,2757,2754,2756,2755,2757,2755,2754,2751,2747,2741,2734,2726,2717,2710,2703,2697,2689,2684,2676,2670,2663,2658,2651,2647,2639,2635,2629,2628,2622,2622,2619,2619,2616,2613,2610,2608,2605,2604,2603,2607,2611,2620,2630,2645,2662,2681,2701,2720,2740,2757,2772,2783,2793,2798,2803,2804,2805,2802,2803,2799,2797,2791,2788,2780,2774,2764,2759,2750,2745,2737,2733,2729,2727,2723,2722,2720,2719,2715,2710,2704,2697,2689,2680,2672,2663,2655,2646,2639,2633,2627,2621,2619,2612,2609,2605,2603,2597,2596,2591,2589,2585,2585,2582,2584,2583,2586,2589,2596,2604,2618,2633,2653,2673,2695,2718,2741,2762,2782,2799,2813,2822,2828,2832,2832,2833,2829,2827,2823,2819,2814,2812,2807,2804,2799,2797,2792,2791,2787,2786,2783,2780,2777,2775,2770,2764,2757,2751,2742,2734,2724,2714,2704,2693,2683,2671,2663,2652,2642,2631,2624,2615,2610,2602,2599,2591,2589,2584,2583,2578,2577,2573,2571,2566,2563,2558,2555,2551,2549,2545,2548,2551,2558,2569,2585,2603,2625,2648,2672,2698,2722,2744,2762,2779,2790,2799,2803,2809,2810,2812,2808,2808,2805,2804,2799,2796,2790,2786,2778,2773,2766,2762,2753,2748,2740,2734,2726,2720,2713,2706,2698,2692,2686,2680,2676,2669,2664,2657,2651,2644,2638,2630,2622,2613,2607,2597,2591,2583,2578,2572,2568,2563,2561,2556,2553,2550,2550,2548,2550,2548,2547,2544,2543,2539,2537,2534,2529,2523,2517,2513,2509,2510,2514,2524,2535,2554,2573,2599,2624,2654,2679,2708,2729,2750,2765,2781,2790,2799,2804,2809,2812,2818,2820,2822,2824,2823,2821,2818,2814,2810,2805,2799,2792,2785,2780,2774,2770,2764,2760,2754,2749,2741,2735,2725,2720,2710,2704,2693,2688,2679,2674,2665,2660,2653,2649,2642,2639,2633,2629,2624,2621,2618,2615,2612,2611,2610,2607,2604,2602,2600,2597,2594,2591,2590,2585,2580,2575,2573,2572,2575,2578,2590,2600,2617,2635,2661,2684,2710,2734,2757,2775,2792,2805,2815,2819,2825,2825,2826,2825,2826,2825,2824,2822,2817,2813,2805,2798,2790,2783,2774,2767,2760,2755,2748,2747,2743,2741,2737,2734,2728,2722,2714,2710,2701,2694,2683,2676,2667,2662,2654,2646,2640,2633,2625,2620,2614,2609,2604,2599,2595,2592,2590,2585,2583,2578,2576,2571,2568,2564,2563,2561,2563,2564,2571,2580,2594,2607,2626,2644,2666,2685,2705,2722,2742,2756,2767,2777,2785,2789,2792,2794,2795,2794,2792,2789,2784,2778,2770,2764,2756,2751,2743,2739,2735,2733,2728,2728,2725,2725,2720,2719,2712,2708,2700,2694,2686,2679,2669,2660,2652,2644,2636,2628,2621,2615,2609,2602,2598,2594,2591,2589,2588,2585,2585,2582,2581,2578,2581,2581,2586,2591,2600,2610,2625,2641,2660,2678,2698,2714,2732,2744,2756,2764,2771,2774,2777,2778,2780,2780,2781,2779,2778,2777,2773,2770,2764,2759,2753,2749,2742,2738,2733,2730,2724,2723,2720,2719,2714,2710,2703,2698,2690,2684,2676,2668,2659,2649,2640,2632,2624,2618,2610,2603,2597,2593,2587,2582,2579,2575,2572,2569,2568,2566,2565,2562,2561,2559,2559,2555,2556,2552,2551,2549,2550,2550,2557,2563,2577,2592,2613,2633,2659,2685,2710,2735,2760,2780,2799,2813,2824,2832,2837,2840,2841,2843,2842,2840,2837,2834,2829,2826,2820,2817,2811,2806,2799,2796,2790,2787,2781,2778,2772,2769,2762,2758,2751,2745,2738,2731,2721,2715,2705,2697,2687,2679,2670,2660,2652,2642,2632,2621,2613,2604,2597,2588,2584,2577,2573,2568,2569,2566,2567,2565,2565,2563,2564,2561,2560,2555,2552,2547,2545,2541,2539,2537,2537,2537,2540,2548,2560,2574,2592,2613,2636,2661,2686,2713,2737,2760,2779,2797,2811,2824,2831,2840,2846,2851,2854,2858,2857,2857,2855,2852,2846,2840,2832,2826,2818,2811,2804,2799,2793,2787,2781,2776,2771,2766,2760,2752,2745,2736,2726,2717,2709,2697,2688,2676,2668,2656,2649,2638,2630,2619,2612,2605,2599,2595,2592,2588,2587,2585,2585,2585,2586,2585,2584,2583,2582,2582,2583,2582,2582,2584,2586,2590,2594,2598,2604,2614,2624,2638,2654,2674,2693,2716,2736,2760,2780,2800,2815,2829,2838,2845,2849,2852,2851,2853,2851,2850,2848,2845,2840,2834,2828,2819,2811,2802,2794,2786,2780,2774,2769,2765,2763,2759,2759,2753,2750,2745,2739,2732,2727,2719,2714,2704,2697,2689,2684,2677,2673,2667,2664,2657,2652,2646,2642,2638,2634,2631,2627,2623,2618,2614,2611,2609,2607,2608,2610,2617,2626,2639,2653,2671,2689,2709,2727,2748,2762,2778,2787,2796,2800,2804,2804,2806,2804,2803,2798,2796,2790,2784,2778,2773,2767,2763,2758,2755,2752,2748,2745,2744,2743,2739,2736,2730,2725,2717,2711,2702,2695,2687,2681,2674,2667,2658,2652,2645,2639,2632,2626,2618,2612,2604,2597,2592,2588,2582,2579,2575,2571,2568,2566,2565,2566,2570,2576,2586,2599,2615,2634,2657,2677,2701,2722,2744,2762,2779,2790,2801,2805,2811,2812,2815,2818,2819,2817,2815,2810,2805,2799,2794,2788,2780,2773,2766,2759,2753,2750,2747,2745,2742,2739,2735,2731,2724,2719,2710,2704,2694,2685,2674,2666,2656,2647,2637,2630,2621,2613,2604,2598,2590,2584,2577,2572,2565,2561,2557,2553,2550,2547,2543,2540,2536,2532,2529,2525,2522,2517,2514,2511,2509,2510,2517,2526,2540,2557,2577,2603,2633,2661,2692,2721,2747,2769,2789,2804,2818,2825,2830,2833,2835,2836,2836,2835,2833,2832,2828,2826,2821,2816,2811,2807,2801,2796,2792,2789,2784,2781,2776,2775,2769,2766,2760,2754,2747,2741,2732,2724,2715,2707,2697,2687,2676,2668,2660,2651,2642,2635,2626,2619,2613,2607,2603,2597,2591,2587,2585,2581,2578,2574,2573,2571,2571,2568,2568,2566,2564,2561,2558,2556,2553,2550,2549,2550,2557,2566,2580,2598,2620,2645,2671,2700,2728,2755,2779,2800,2818,2830,2840,2848,2850,2853,2855,2855,2853,2851,2848,2845,2839,2834,2827,2823,2814,2806,2799,2793,2788,2784,2780,2778,2777,2775,2772,2769,2765,2759,2751,2742,2731,2721,2710,2697,2683,2670,2658,2646,2635,2624,2616,2606,2599,2592,2585,2580,2575,2571,2568,2565,2562,2560,2557,2554,2552,2549,2548,2548,2546,2544,2543,2542,2540,2540,2540,2540,2543,2548,2557,2570,2586,2608,2633,2661,2690,2721,2751,2780,2807,2830,2850,2865,2875,2881,2885,2886,2886,2886,2884,2880,2877,2875,2872,2868,2864,2859,2854,2848,2843,2837,2833,2828,2823,2819,2816,2811,2807,2801,2797,2792,2784,2775,2764,2753,2742,2730,2718,2706,2696,2684,2674,2665,2656,2647,2640,2632,2624,2618,2612,2605,2599,2593,2589,2584,2580,2575,2572,2569,2567,2566,2568,2571,2578,2589,2604,2622,2643,2664,2690,2713,2738,2760,2780,2797,2810,2820,2825,2828,2830,2828,2827,2822,2817,2809,2801,2793,2783,2776,2768,2761,2755,2749,2746,2744,2742,2741,2739,2739,2737,2734,2731,2726,2720,2713,2706,2696,2687,2678,2667,2656,2646,2636,2628,2619,2611,2605,2601,2597,2594,2594,2593,2592,2588,2586,2584,2580,2577,2573,2571,2568,2570,2574,2583,2597,2612,2633,2657,2681,2709,2738,2765,2789,2809,2826,2841,2851,2858,2860,2862,2861,2861,2858,2855,2853,2851,2847,2842,2837,2833,2827,2820,2813,2806,2800,2794,2787,2779,2773,2768,2760,2753,2747,2740,2732,2723,2714,2705,2697,2685,2675,2666,2656,2645,2635,2626,2619,2610,2603,2598,2593,2589,2586,2582,2580,2576,2573,2570,2567,2564,2560,2556,2551,2547,2544,2543,2544,2547,2556,2567,2584,2605,2628,0,0,1
2655,2647,2644,2635,2633,2626,2622,2617,2615,2611,2609,2605,2603,2600,2597,2593,2590,2587,2583,2580,2578,2580,2583,2591,2601,2615,2631,2652,2668,2691,2710,2731,2745,2759,2766,2774,2776,2781,2779,2780,2776,2774,2770,2770,2767,2766,2761,2760,2755,2751,2748,2745,2741,2736,2732,2725,2721,2715,2709,2701,2693,2684,2678,2667,2661,2652,2646,2638,2632,2625,2622,2617,2614,2608,2606,2601,2601,2597,2595,2591,2586,2582,2579,2574,2572,2570,2570,2571,2576,2586,2599,2616,2633,2655,2675,2698,2718,2738,2753,2766,2772,2779,2780,2784,2781,2781,2777,2776,2772,2769,2764,2762,2758,2756,2751,2748,2744,2741,2736,2733,2728,2724,2719,2713,2707,2700,2693,2684,2675,2666,2660,2650,2644,2636,2632,2624,2620,2611,2610,2605,2603,2597,2597,2591,2590,2585,2583,2580,2578,2572,2568,2565,2563,2560,2563,2569,2578,2590,2606,2625,2645,2669,2690,2713,2733,2750,2762,2772,2777,2781,2781,2783,2781,2782,2777,2776,2771,2771,2768,2767,2763,2760,2755,2753,2747,2743,2740,2738,2732,2727,2723,2717,2710,2703,2695,2688,2681,2672,2663,2654,2649,2640,2635,2628,2626,2619,2616,2608,2608,2605,2603,2599,2601,2596,2593,2586,2585,2582,2581,2579,2582,2587,2598,2608,2624,2643,2665,2687,2709,2731,2749,2767,2779,2788,2792,2798,2796,2799,2794,2793,2788,2788,2782,2781,2776,2774,2770,2769,2762,2759,2755,2752,2746,2743,2737,2733,2725,2719,2711,2704,2696,2688,2679,2670,2663,2654,2647,2640,2634,2628,2623,2616,2615,2611,2609,2604,2604,2600,2600,2595,2594,2589,2587,2581,2580,2576,2578,2583,2591,2602,2620,2638,2660,2683,2708,2732,2754,2772,2788,2798,2804,2809,2812,2814,2813,2811,2809,2807,2802,2801,2796,2796,2790,2787,2782,2778,2773,2769,2764,2761,2756,2753,2745,2740,2733,2726,2718,2711,2702,2694,2686,2677,2670,2664,2658,2652,2648,2644,2640,2635,2632,2628,2628,2622,2619,2614,2610,2604,2602,2598,2598,2598,2603,2609,2623,2636,2654,2673,2696,2717,2740,2759,2777,2791,2801,2806,2811,2812,2812,2812,2810,2808,2804,2801,2796,2794,2790,2787,2784,2780,2773,2770,2764,2761,2755,2752,2745,2740,2732,2726,2717,2709,2699,2692,2682,2675,2666,2660,2653,2647,2641,2637,2633,2628,2626,2622,2619,2615,2612,2606,2604,2599,2597,2591,2588,2583,2584,2584,2591,2598,2613,2627,2646,2664,2687,2708,2730,2746,2764,2775,2785,2790,2793,2794,2794,2792,2789,2789,2786,2783,2780,2777,2774,2771,2765,2762,2759,2757,2750,2747,2739,2734,2727,2722,2714,2709,2699,2693,2682,2675,2667,2661,2653,2647,2640,2634,2627,2622,2617,2612,2608,2604,2599,2595,2591,2587,2583,2578,2575,2569,2566,2564,2567,2570,2579,2588,2604,2619,2641,2660,2683,2701,2721,2735,2749,2757,2765,2768,2771,2769,2770,2768,2768,2764,2762,2760,2758,2755,2753,2751,2748,2745,2742,2740,2736,2734,2729,2725,2719,2715,2706,2700,2693,2687,2677,2673,2665,2660,2654,2649,2644,2641,2636,2633,2630,2627,2622,2620,2615,2613,2611,2608,2604,2600,2597,2594,2596,2599,2606,2615,2627,2641,2661,2680,2701,2720,2741,2757,2773,2782,2792,2795,2801,2799,2800,2798,2797,2795,2795,2792,2790,2787,2786,2782,2780,2777,2773,2768,2764,2759,2753,2749,2742,2736,2729,2723,2714,2708,2699,2694,2686,2681,2673,2669,2661,2657,2651,2648,2644,2640,2634,2631,2626,2623,2618,2615,2610,2607,2602,2598,2595,2594,2597,2601,2609,2621,2635,2652,2671,2691,2713,2732,2751,2764,2778,2785,2793,2796,2799,2797,2798,2795,2793,2788,2787,2784,2783,2777,2776,2772,2769,2765,2763,2758,2755,2751,2745,2740,2733,2726,2718,2711,2700,2693,2684,2677,2669,2663,2656,2652,2646,2644,2640,2639,2634,2633,2628,2627,2622,2619,2616,2613,2607,2604,2598,2594,2591,2591,2593,2598,2608,2620,2635,2652,2672,2694,2716,2736,2754,2770,2782,2790,2796,2798,2799,2796,2796,2792,2791,2787,2784,2779,2778,2773,2770,2766,2764,2758,2755,2750,2747,2742,2737,2732,2726,2720,2713,2705,2697,2689,2679,2671,2662,2656,2647,2642,2634,2630,2624,2621,2616,2614,2610,2608,2602,2600,2595,2592,2588,2585,2581,2579,2579,2583,2592,2605,2617,2636,2655,2676,2697,2718,2738,2756,2770,2779,2787,2790,2792,2791,2791,2787,2787,2782,2782,2777,2776,2771,2770,2765,2763,2758,2755,2749,2746,2740,2736,2728,2723,2715,2708,2699,2691,2682,2673,2665,2655,2648,2640,2633,2627,2622,2614,2610,2605,2602,2596,2593,2589,2585,2580,2577,2574,2575,2576,2583,2590,2605,2619,2638,2657,2678,2698,2719,2736,2751,2763,2770,2775,2778,2778,2778,2775,2773,2770,2766,2763,2759,2758,2753,2752,2749,2749,2746,2746,2743,2742,2738,2736,2729,2725,2717,2711,2702,2695,2685,2678,2670,2662,2654,2648,2641,2635,2630,2626,2621,2616,2612,2608,2607,2605,2607,2611,2618,2627,2641,2657,2676,2695,2717,2737,2758,2773,2787,2798,2804,2807,2810,2809,2807,2804,2802,2797,2795,2791,2789,2787,2784,2780,2777,2774,2770,2766,2761,2756,2751,2746,2737,2731,2721,2713,2702,2694,2682,2673,2663,2657,2648,2643,2635,2632,2625,2621,2615,2613,2608,2605,2599,2596,2595,2597,2600,2609,2622,2637,2655,2675,2697,2720,2742,2760,2778,2792,2804,2810,2816,2817,2820,2819,2820,2817,2817,2813,2812,2806,2804,2798,2795,2787,2782,2775,2770,2763,2758,2751,2744,2738,2730,2721,2713,2704,2696,2688,2679,2671,2664,2656,2648,2642,2635,2631,2624,2619,2612,2609,2606,2608,2611,2619,2628,2642,2656,2675,2692,2711,2727,2745,2757,2767,2774,2779,2783,2784,2783,2782,2779,2775,2770,2766,2763,2757,2752,2745,2739,2732,2727,2720,2715,2709,2703,2695,2689,2681,2674,2666,2659,2650,2645,2636,2629,2620,2615,2608,2602,2596,2589,2584,2579,2575,2574,2575,2578,2585,2596,2608,2623,2640,2658,2675,2693,2708,2720,2731,2738,2744,2747,2747,2747,2746,2745,2742,2741,2737,2734,2730,2727,2723,2719,2713,2709,2704,2698,2692,2687,2684,2678,2671,2667,2661,2654,2648,2642,2636,2629,2622,2615,2610,2604,2597,2593,2588,2584,2580,2577,2573,2571,2571,2572,2576,2585,2595,2609,2623,2640,2658,2676,2694,2708,2723,2734,2742,2746,2750,2752,2752,2752,2751,2748,2747,2744,2739,2737,2733,2728,2725,2720,2715,2710,2705,2700,2695,2690,2685,2679,2672,2666,2660,2653,2647,2641,2636,2630,2625,2619,2614,2609,2604,2599,2596,2592,2587,2583,2578,2576,2574,2575,2580,2588,2599,2611,2627,2644,2663,2682,2700,2717,2732,2744,2754,2759,2763,2766,2767,2767,2767,2765,2763,2760,2756,2752,2749,2744,2739,2734,2729,2724,2720,2715,2711,2707,2702,2697,2691,2684,2677,2671,2664,2659,2653,2646,2639,2635,2631,2628,2625,2621,2617,2615,2611,2607,2604,2604,2603,2606,2612,2621,2633,2647,2664,2682,2701,2720,2736,2751,2764,2772,2779,2784,2787,2786,2787,2784,2781,2778,2775,2771,2767,2763,2760,2755,2752,2747,2745,2742,2739,2734,2730,2726,2720,2712,2706,2699,2690,2682,2675,2668,2661,2655,2647,2642,2637,2633,2628,2625,2620,2617,2613,2610,2606,2607,2606,2611,2616,2625,2639,2654,2672,2691,2711,2731,2749,2766,2779,2789,2797,2802,2807,2809,2810,2809,2807,2805,2803,2799,2796,2791,2786,2780,2774,2767,2762,2756,2752,2745,2740,2733,2729,2722,2714,2706,2699,2689,2680,2670,2663,2656,2648,2640,2634,2629,2623,2619,2615,2610,2605,2602,2597,2593,2589,2585,2583,2583,2583,2589,2599,2611,2625,2646,2666,2689,2710,2730,2749,2766,2779,2790,2797,2802,2804,2805,2805,2806,2805,2802,2800,2796,2793,2788,2783,2777,2771,2765,2758,2751,2746,2739,2733,2725,2719,2710,2703,2693,2687,2676,2670,2661,2653,2645,2640,2632,2627,2620,2615,2609,2605,2600,2595,2591,2586,2581,2576,2572,2568,2567,2566,2572,2579,2592,2605,2625,2644,2668,2688,2712,2731,2749,2761,2773,2779,2784,2784,2786,2785,2785,2783,2781,2777,2774,2769,2765,2759,2754,2748,2742,2737,2732,2726,2720,2713,2706,2700,2691,2684,2675,2667,2655,2648,2637,2630,2621,2615,2608,2604,2597,2592,2586,2583,2578,2576,2571,2567,2562,2558,2552,2548,2543,2541,2541,2545,2554,2566,2583,2603,2628,2652,2679,2704,2728,2747,2764,2775,2785,2788,2791,2790,2788,2784,2781,2776,2772,2767,2764,2759,2757,2752,2750,2747,2745,2741,2738,2735,2730,2725,2720,2712,2703,2693,2683,2675,2664,2655,2645,2638,2628,2624,2615,2611,2604,2600,2593,2590,2586,2583,2578,2577,2574,2580,2586,2599,2613,2633,2654,2676,2699,2723,2744,2765,2781,2793,2801,2805,2806,2805,2804,2800,2796,2790,2786,2781,2778,2773,2772,2766,2765,2760,2759,2755,2754,2747,2743,2736,2728,2719,2711,2699,2688,2676,2664,2652,2642,2634,2624,2616,2608,2600,2594,2589,2583,2580,2575,2570,2565,2562,2557,2560,2559,2567,2575,2590,2607,2632,2654,2682,2707,2735,2759,2783,2799,2815,2822,2829,2830,2831,2829,2829,2826,2822,2819,2814,2810,2807,2803,2797,2793,2786,2782,2776,2771,2763,2760,2751,2745,2734,2725,2714,2706,2691,2680,2667,2658,2644,2635,2624,2617,2608,2600,2593,2588,2583,2578,2571,2566,2560,2555,2550,2546,2544,2544,2550,2558,2573,2590,2613,2637,2666,2693,2721,2744,2768,2784,2799,2806,2813,2813,2814,2810,2807,2803,2799,2793,2789,2783,2781,2776,2772,2767,2763,2758,2753,2748,2742,2737,2729,2722,2713,2704,2693,2686,2674,2665,2653,2645,2634,2626,2615,2609,2601,2595,2587,2583,2575,2572,2565,2560,2554,2550,2545,2541,2538,2540,2546,2556,2570,2588,2611,2635,2661,2685,2712,2735,2755,2768,2781,2786,2791,2790,2788,2784,2783,2777,2775,2768,2767,2761,2759,2754,2752,2748,2746,2740,2738,2733,2728,2722,2716,2709,2701,2693,2683,2673,2663,2654,2643,2633,2623,2616,2607,2601,2594,2590,2582,2578,2572,2570,2565,2562,2556,2555,2550,2551,2554,2563,2574,2591,2609,2632,2655,2681,2705,2729,2749,2766,2778,2785,2790,2791,2790,2787,2783,2777,2774,2767,2764,2760,2757,2750,2748,2743,2742,2738,2738,2733,2731,2724,2720,2714,2709,2700,2693,2682,2673,2662,2654,2645,2637,2629,2620,2614,2608,2603,2599,2594,2590,2585,2580,2578,2575,2578,2578,2588,2596,2613,2629,2651,2672,2697,2719,2742,2760,2777,2788,2797,2799,2802,2801,2799,2794,2790,2785,2780,2775,2771,2768,2765,2761,2757,2756,2753,2750,2746,2744,2737,2734,2726,2722,2711,2703,2692,2684,2674,2665,2654,2649,2639,2632,2623,2620,2613,2608,2602,2598,2593,2589,2586,2585,2584,2587,2596,2608,2623,2641,2664,2686,2709,2731,2756,2775,2793,2803,2813,2817,2822,2819,2821,2818,2817,2812,2809,2802,2800,2794,2791,2785,2781,2774,2771,2765,2760,2755,2750,2744,2737,2728,2719,2711,2699,2689,2678,2668,2657,2650,2641,2634,2626,2622,2614,2611,2605,2602,2597,2595,2589,2586,2580,2577,2573,2571,2569,2573,2579,2590,2603,2622,2643,2665,2690,2715,2738,2758,2777,2789,2799,2804,2807,2807,2806,2803,2800,2796,2793,2787,2784,2778,2776,2768,2765,2756,2752,2744,2740,2733,2728,2721,2714,2705,2699,2690,2680,2671,2662,2651,2641,2631,2622,2615,2607,2600,2594,2589,2583,2579,2574,2572,2565,2562,2555,2553,2548,2547,2547,2554,2562,2577,2592,2613,2634,2659,2680,2706,2727,2745,2758,2769,2775,2778,2778,2778,2775,2773,2769,2763,2760,2754,2753,2749,2747,2741,2739,2733,2731,2725,2723,2716,2713,2703,2699,2689,2684,2673,2664,2654,2647,2637,2631,2623,2617,2609,2605,2600,2595,2591,2587,2583,2578,2575,2572,2570,2568,2568,2570,2578,2588,2604,2619,2641,2661,2684,2703,2725,2741,2757,2766,2773,2776,2777,2772,2770,2766,2762,2756,2753,2748,2746,2741,2737,2735,2734,2731,2727,2726,2722,2719,2713,2709,2702,2697,2689,2681,2671,2664,2654,2648,2639,2632,2624,2618,2609,2604,2598,2595,2589,2585,2578,2575,2572,2574,2576,2586,2597,2610,2626,2645,2665,2686,2706,2722,2738,2749,2757,2760,2764,2761,2762,2758,2756,2751,2750,2745,2743,2739,2738,2733,2733,2728,2726,2723,2722,2717,2713,2708,2704,2697,2689,2681,2673,2665,2656,2648,2639,2634,2626,2620,2614,2610,2605,2600,2595,2592,2587,2585,2581,2584,2586,2594,2604,2619,2635,2657,2679,2702,2724,2748,2766,2782,2794,2803,2809,2812,2813,2813,2812,2809,2806,2804,2800,2796,2793,2788,2786,2780,2775,2768,2764,2757,2751,2745,2740,2731,2724,2714,2706,2696,2688,2677,2669,2661,2654,2646,2641,2634,2628,2623,2619,2615,2611,2606,2601,2597,2592,2588,2583,2581,2579,2583,2586,2596,2608,2625,2643,2664,2684,2708,2727,2748,2762,2777,2783,2789,2790,2793,2791,2790,2788,2786,2781,2778,2774,2771,2767,2763,2759,2753,2747,2741,2735,2728,2723,2716,2710,2701,2694,2684,2678,2669,2662,2654,2647,2639,2633,2626,2622,2615,2611,2605,2602,2596,2594,2590,2585,2581,2576,2570,2566,2563,2562,2562,2566,2574,2586,2601,2617,2637,2657,2679,2698,2717,2731,2744,2750,2757,2760,2762,2761,2761,2757,2756,2752,2751,2747,2744,2739,2736,2731,2727,2723,2719,2716,2713,2709,2705,2700,2695,2689,2683,2676,2668,2663,2655,2649,2642,2638,2631,2628,2623,2621,2617,2614,2609,2609,2604,2602,2598,2596,2593,2593,2593,2597,2605,2615,2627,2642,2659,2677,2693,2711,2727,2741,2751,2757,2762,2762,2764,2762,2760,2758,2756,2751,2747,2743,2743,2739,2739,2734,2734,2731,2730,2727,2725,2722,2720,2715,2710,2705,2699,2691,2684,2675,2669,2663,2657,2650,2644,2640,2636,2633,2629,2628,2623,2621,2617,2616,2613,2612,2612,2616,2621,2631,2642,2658,2673,2693,2711,2731,2747,2764,2776,2787,2793,2797,2799,2800,2800,2797,2796,2795,2793,2790,2787,2785,2784,2781,2778,2773,2771,2767,2765,2760,2756,2751,2748,2741,2736,2727,2722,2714,2707,2699,2693,2687,2680,2674,2669,2664,2659,2655,2651,2648,2644,2640,2635,2630,2626,2623,2621,2620,2623,2630,2639,2653,2667,2684,2701,2723,2740,2756,2769,2780,2787,2791,2792,2794,2793,2793,2790,2790,2788,2786,2783,2781,2779,2776,2771,2768,2761,2756,2752,2746,2741,2736,2731,2723,2718,2711,2705,2698,2691,2684,2677,2669,2662,2655,2650,2642,2637,2630,2625,2619,2616,2610,2607,2601,2598,2593,2591,2590,2590,2593,2599,2609,2623,2639,2657,2677,2695,2714,2731,2747,2757,2765,2770,2773,2772,2771,2770,2768,2766,2762,2759,2758,2755,2753,2750,2746,2742,2739,2735,2732,2729,2726,2722,2717,2712,2708,2702,2695,2688,2681,2674,2667,2660,2652,2645,2640,2635,2632,2628,2624,2622,2618,2616,2612,2610,2608,2606,2604,2603,2606,2611,2620,2633,2647,2663,2680,2697,2713,2729,2743,2753,2760,2764,2766,2765,2765,2762,2758,2754,2750,2746,2743,2740,2739,2737,2735,2733,2731,2730,2730,2728,2725,2721,2716,2710,2705,2697,2690,2682,2674,2665,2658,2652,2646,2639,2634,2630,2626,2623,2619,2615,2613,2610,2606,2603,2600,2597,2594,2595,2598,2603,2613,2625,2642,2659,2679,2700,2719,2737,2753,2766,2777,2783,2787,2789,2790,2791,2789,2787,2787,2786,2783,2780,2780,2777,2774,2770,2766,2763,2759,2755,2751,2747,2743,2737,2731,2723,2716,2709,2701,2695,2687,2680,2673,2666,2659,2654,2648,2643,2637,2632,2627,2623,2619,2615,2611,2607,2603,2599,2597,2598,2602,2606,2616,2628,2643,2661,2681,2701,2720,2738,2752,2764,2773,2779,2783,2784,2783,2782,2781,2779,2777,2776,2773,2770,2767,2763,2759,2757,2751,2745,2741,2736,2731,2727,2722,2716,2711,2704,2696,2688,2682,2673,2666,2658,2651,2643,2636,2629,2624,2619,2613,2607,2603,2599,2594,2589,2585,2581,2576,2571,2567,2565,2566,2570,2578,2588,2602,2619,2637,2658,2678,2698,2717,2731,2742,2749,2754,2755,2754,2752,2749,2746,2743,2740,2738,2734,2733,2730,2729,2727,2725,2722,2720,2718,2716,2713,2711,2707,2703,2698,2691,2684,2678,2671,2664,2656,2648,2642,2636,2631,2626,2622,2618,2615,2610,2607,2604,2601,2597,2593,2589,2588,2590,2594,2599,2611,2623,2639,2655,2673,2691,2709,2723,2735,2747,2752,2755,2756,2755,2751,2749,2746,2743,2740,2736,2731,2729,2726,2726,2724,2723,2720,2719,2716,2714,2712,2708,2703,2699,2691,2685,2677,2671,2663,2657,2650,2644,2638,2632,2627,2622,2618,2614,2611,2607,2604,2600,2598,2595,2594,2593,2596,2602,2611,2622,2637,2655,2675,2694,2714,2732,2750,2763,2774,2782,2787,2787,2787,2786,2784,2782,2780,2777,2776,2773,2769,2766,2764,2762,2759,2757,2753,2751,2747,2744,2742,2738,2732,2726,2719,2712,2704,2698,2690,2683,2674,2667,2660,2655,2649,2645,2641,2637,2631,2626,2622,2618,2615,2613,2613,2614,2617,2624,2634,2647,2663,2680,2697,2716,2734,2749,2762,2771,2779,2783,2785,2785,2786,2784,2783,2780,2778,2775,2774,2772,2771,2769,2765,2760,2758,2754,2750,2745,2741,2737,2731,2725,2719,2713,2706,2699,2690,2684,2677,2669,2661,2656,2649,2643,2636,2632,2626,4,4,0
2583,2576,2571,2565,2560,2555,2553,2554,2561,2567,2580,2595,2615,2637,2659,2683,2707,2730,2749,2764,2776,2784,2789,2792,2790,2789,2787,2786,2782,2779,2775,2771,2765,2762,2757,2754,2747,2744,2738,2733,2727,2723,2716,2713,2706,2700,2693,2687,2679,2671,2663,2655,2649,2641,2632,2625,2619,2611,2605,2600,2596,2589,2587,2580,2578,2575,2571,2567,2566,2565,2569,2574,2587,2599,2618,2635,2657,2676,2697,2716,2734,2749,2761,2766,2771,2773,2773,2771,2770,2769,2766,2764,2759,2756,2753,2751,2746,2744,2740,2737,2732,2730,2725,2723,2718,2715,2709,2705,2697,2692,2684,2678,2670,2664,2655,2650,2642,2637,2630,2626,2621,2617,2613,2608,2604,2600,2597,2593,2590,2588,2587,2589,2594,2603,2617,2633,2651,2669,2690,2708,2728,2744,2759,2770,2777,2779,2781,2780,2780,2777,2776,2773,2770,2766,2763,2760,2756,2750,2746,2742,2738,2736,2731,2728,2725,2724,2719,2717,2713,2711,2704,2700,2691,2687,2679,2673,2666,2659,2651,2645,2638,2635,2629,2625,2619,2617,2612,2608,2606,2605,2606,2608,2615,2625,2639,2655,2673,2691,2713,2732,2751,2764,2777,2784,2790,2792,2795,2792,2793,2789,2789,2785,2785,2782,2781,2776,2773,2769,2766,2760,2756,2753,2751,2747,2746,2742,2738,2734,2729,2724,2720,2715,2706,2700,2692,2686,2679,2674,2668,2663,2654,2649,2644,2642,2635,2632,2626,2625,2618,2616,2612,2613,2615,2622,2631,2646,2662,2678,2696,2716,2735,2754,2770,2782,2792,2796,2800,2803,2805,2803,2803,2801,2800,2797,2796,2793,2792,2787,2785,2781,2779,2773,2770,2766,2763,2759,2756,2749,2745,2739,2734,2727,2722,2716,2709,2701,2693,2685,2677,2668,2659,2651,2643,2636,2628,2622,2615,2610,2605,2602,2596,2593,2588,2586,2581,2581,2581,2588,2596,2609,2623,2643,2662,2686,2708,2730,2751,2769,2782,2794,2803,2809,2814,2814,2815,2815,2817,2815,2815,2811,2809,2806,2804,2799,2797,2790,2786,2781,2778,2773,2771,2765,2759,2753,2749,2742,2737,2726,2720,2711,2703,2695,2688,2680,2672,2663,2656,2651,2645,2639,2633,2629,2621,2617,2612,2610,2605,2601,2594,2591,2585,2584,2581,2586,2589,2600,2612,2629,2645,2666,2686,2708,2727,2746,2759,2771,2778,2784,2786,2788,2788,2787,2786,2784,2782,2778,2776,2771,2766,2760,2757,2750,2747,2741,2737,2732,2730,2725,2723,2720,2718,2712,2708,2701,2698,2691,2685,2677,2671,2662,2656,2648,2641,2634,2627,2621,2614,2608,2604,2598,2591,2587,2581,2577,2571,2568,2562,2559,2553,2553,2554,2561,2568,2582,2596,2616,2634,2656,2674,2696,2712,2727,2736,2744,2746,2749,2747,2744,2740,2737,2734,2730,2727,2724,2721,2717,2715,2710,2709,2706,2704,2700,2698,2693,2691,2687,2686,2680,2678,2671,2669,2663,2657,2651,2647,2641,2638,2631,2628,2623,2620,2615,2613,2611,2608,2605,2601,2598,2596,2592,2588,2587,2585,2588,2592,2600,2611,2628,2643,2662,2680,2701,2718,2737,2749,2763,2770,2775,2776,2780,2781,2781,2778,2776,2771,2767,2763,2759,2754,2749,2743,2738,2734,2732,2730,2728,2727,2726,2725,2723,2721,2719,2716,2710,2707,2699,2694,2687,2682,2674,2669,2662,2657,2650,2647,2640,2638,2632,2627,2621,2618,2615,2616,2619,2627,2637,2649,2662,2677,2694,2710,2728,2741,2754,2761,2767,2769,2771,2769,2770,2768,2768,2766,2768,2764,2765,2762,2762,2759,2757,2754,2752,2747,2745,2742,2739,2735,2732,2727,2725,2721,2716,2711,2707,2701,2693,2688,2680,2675,2667,2661,2653,2649,2641,2637,2630,2627,2621,2619,2615,2615,2615,2621,2628,2641,2652,2670,2686,2705,2724,2743,2759,2774,2785,2794,2799,2803,2805,2804,2803,2802,2803,2801,2800,2797,2795,2791,2789,2785,2786,2782,2781,2775,2774,2769,2767,2762,2758,2752,2747,2739,2732,2724,2717,2708,2701,2694,2687,2679,2672,2665,2658,2651,2645,2639,2632,2626,2619,2614,2610,2612,2616,2625,2636,2650,2665,2685,2704,2725,2743,2761,2774,2786,2791,2798,2800,2801,2799,2799,2797,2795,2792,2789,2785,2782,2779,2776,2774,2769,2765,2760,2757,2752,2749,2743,2740,2732,2727,2719,2713,2704,2697,2686,2679,2669,2661,2651,2645,2634,2626,2618,2611,2603,2598,2591,2585,2578,2573,2568,2566,2566,2570,2579,2590,2605,2623,2642,2663,2686,2707,2727,2744,2759,2768,2777,2781,2786,2787,2788,2787,2788,2786,2784,2781,2778,2774,2771,2766,2763,2759,2754,2750,2746,2740,2735,2730,2724,2719,2713,2704,2695,2687,2677,2668,2657,2649,2638,2629,2617,2610,2601,2592,2584,2577,2569,2562,2555,2550,2546,2545,2545,2552,2560,2574,2591,2611,2633,2656,2678,2700,2721,2739,2753,2765,2773,2778,2782,2783,2785,2785,2784,2780,2778,2775,2770,2765,2761,2756,2752,2746,2743,2737,2734,2728,2725,2720,2713,2708,2703,2695,2689,2682,2674,2666,2658,2649,2642,2633,2625,2618,2610,2602,2594,2588,2582,2576,2571,2568,2568,2572,2578,2589,2601,2619,2635,2656,2674,2694,2712,2730,2742,2752,2757,2762,2763,2766,2765,2764,2762,2757,2753,2750,2746,2740,2736,2730,2725,2720,2717,2712,2709,2704,2699,2691,2689,2681,2675,2668,2661,2651,2644,2634,2627,2619,2612,2604,2598,2592,2585,2578,2573,2568,2564,2558,2554,2551,2549,2549,2554,2561,2572,2587,2603,2623,2643,2664,2685,2706,2722,2738,2749,2759,2765,2769,2771,2775,2775,2777,2776,2776,2773,2771,2767,2762,2758,2755,2748,2743,2738,2733,2728,2724,2719,2713,2707,2700,2694,2686,2678,2669,2662,2651,2646,2636,2629,2620,2615,2608,2603,2597,2592,2585,2581,2574,2572,2567,2565,2562,2564,2568,2578,2590,2605,2623,2642,2663,2685,2707,2726,2743,2757,2769,2775,2782,2786,2790,2792,2795,2793,2794,2792,2791,2788,2785,2781,2776,2771,2767,2760,2757,2751,2748,2744,2738,2733,2728,2722,2715,2708,2700,2692,2684,2674,2666,2658,2650,2641,2633,2626,2618,2611,2605,2600,2595,2590,2583,2581,2577,2574,2571,2571,2573,2579,2588,2599,2614,2632,2651,2672,2693,2714,2733,2751,2765,2776,2782,2787,2792,2793,2794,2794,2794,2792,2790,2786,2783,2781,2777,2770,2766,2761,2757,2753,2749,2744,2741,2735,2729,2723,2717,2711,2704,2695,2686,2677,2668,2659,2650,2642,2636,2629,2620,2613,2608,2602,2597,2591,2585,2581,2575,2569,2565,2564,2565,2569,2578,2589,2603,2620,2637,2656,2676,2693,2708,2722,2731,2739,2743,2747,2748,2749,2749,2749,2747,2745,2743,2740,2737,2734,2730,2726,2722,2718,2714,2711,2707,2705,2701,2696,2689,2683,2676,2669,2662,2655,2647,2639,2630,2621,2614,2610,2603,2599,2594,2588,2584,2580,2576,2572,2568,2564,2560,2561,2565,2571,2580,2590,2602,2618,2637,2654,2672,2688,2702,2713,2722,2728,2733,2735,2737,2737,2739,2739,2739,2738,2736,2734,2732,2728,2725,2720,2716,2711,2708,2704,2701,2699,2695,2692,2688,2686,2681,2676,2670,2663,2657,2652,2646,2639,2631,2627,2620,2616,2611,2608,2603,2599,2594,2591,2587,2583,2578,2577,2575,2575,2578,2585,2594,2607,2623,2641,2660,2677,2696,2713,2727,2739,2747,2753,2758,2761,2762,2761,2762,2762,2761,2759,2759,2756,2755,2751,2748,2745,2742,2737,2733,2732,2729,2723,2719,2714,2709,2705,2700,2693,2687,2681,2673,2667,2660,2654,2648,2641,2634,2631,2626,2622,2616,2613,2610,2608,2604,2603,2601,2599,2596,2594,2591,2589,2588,2591,2598,2607,2617,2631,2646,2662,2680,2698,2715,2730,2742,2751,2757,2761,2764,2766,2766,2766,2766,2764,2764,2761,2759,2755,2753,2748,2745,2740,2737,2733,2730,2726,2724,2722,2721,2718,2716,2712,2709,2704,2698,2693,2686,2680,2674,2669,2663,2658,2653,2649,2644,2641,2637,2634,2630,2629,2623,2621,2617,2616,2612,2612,2608,2608,2603,2602,2599,2602,2606,2615,2623,2636,2648,2664,2679,2696,2711,2723,2733,2741,2745,2747,2748,2747,2745,2742,2741,2740,2740,2737,2737,2734,2732,2728,2726,2721,2719,2714,2710,2705,2703,2701,2698,2695,2694,2692,2691,2688,2685,2681,2679,2674,2669,2666,2660,2657,2652,2649,2646,2644,2638,2636,2633,2631,2629,2628,2626,2624,2620,2618,2615,2614,2612,2611,2608,2607,2609,2616,2624,2635,2649,2664,2678,2694,2709,2723,2735,2744,2750,2753,2753,2751,2751,2749,2748,2745,2743,2740,2738,2735,2734,2731,2731,2727,2726,2722,2722,2718,2717,2714,2715,2712,2712,2707,2705,2702,2700,2698,2695,2692,2688,2683,2679,2677,2675,2674,2670,2668,2665,2664,2661,2661,2659,2658,2655,2654,2653,2658,2661,2670,2681,2695,2706,2722,2735,2751,2763,2775,2781,2787,2789,2789,2786,2783,2778,2774,2770,2766,2763,2760,2757,2752,2749,2745,2745,2743,2743,2740,2741,2738,2737,2734,2734,2730,2729,2723,2721,2714,2710,2704,2700,2694,2692,2687,2683,2677,2673,2668,2664,2661,2658,2654,2652,2651,2652,2658,2665,2675,2687,2700,2710,2724,2735,2747,2755,2764,2764,2768,2766,2766,2763,2764,2762,2762,2760,2761,2759,2762,2760,2760,2759,2758,2756,2755,2754,2753,2753,2751,2749,2747,2743,2738,2734,2729,2725,2719,2714,2706,2702,2695,2689,2684,2683,2678,2676,2670,2667,2663,2663,2661,2664,2668,2676,2684,2696,2709,2725,2741,2755,2769,2783,2791,2797,2802,2804,2806,2803,2802,2800,2799,2792,2791,2789,2788,2784,2784,2778,2778,2774,2774,2770,2771,2767,2767,2764,2763,2757,2756,2751,2748,2742,2738,2733,2728,2721,2714,2709,2705,2701,2695,2690,2681,2678,2671,2665,2659,2655,2648,2645,2641,2645,2650,2662,2671,2684,2698,2714,2729,2745,2755,2767,2771,2776,2774,2772,2769,2766,2761,2758,2752,2747,2742,2738,2735,2733,2732,2728,2727,2723,2723,2721,2721,2719,2718,2716,2713,2707,2706,2700,2697,2691,2687,2680,2676,2670,2666,2660,2655,2649,2644,2638,2634,2630,2625,2621,2619,2618,2621,2627,2635,2648,2661,2676,2689,2706,2718,2733,2744,2754,2758,2763,2761,2762,2759,2758,2753,2752,2747,2743,2739,2736,2731,2728,2723,2719,2716,2715,2713,2710,2708,2707,2705,2701,2698,2694,2692,2686,2682,2676,2671,2664,2661,2655,2650,2646,2644,2637,2634,2629,2629,2626,2627,2626,2634,2640,2650,2660,2674,2688,2703,2714,2728,2740,2747,2751,2754,2755,2755,2754,2752,2751,2747,2745,2743,2741,2739,2739,2736,2736,2732,2731,2730,2731,2729,2729,2726,2726,2722,2720,2716,2715,2709,2704,2697,2693,2685,2679,2672,2666,2661,2654,2648,2642,2635,2628,2625,2622,2622,2622,2628,2635,2647,2658,2674,2689,2707,2721,2737,2749,2761,2767,2773,2776,2779,2778,2780,2778,2779,2777,2776,2774,2773,2771,2769,2766,2762,2760,2756,2752,2747,2745,2740,2737,2730,2726,2719,2715,2707,2702,2695,2688,2679,2673,2665,2660,2652,2647,2639,2635,2629,2624,2618,2614,2608,2605,2599,2593,2589,2585,2582,2582,2585,2590,2600,2613,2628,2644,2662,2679,2698,2713,2728,2736,2746,2751,2755,2756,2759,2758,2760,2758,2760,2758,2759,2756,2754,2751,2749,2746,2743,2740,2738,2732,2729,2726,2720,2715,2710,2704,2696,2689,2681,2674,2664,2657,2648,2644,2636,2629,2621,2614,2607,2603,2596,2593,2586,2582,2575,2573,2568,2566,2560,2555,2550,2549,2549,2554,2562,2572,2584,2599,2618,2637,2657,2676,2694,2709,2721,2729,2737,2740,2744,2743,2745,2744,2743,2741,2740,2736,2735,2731,2728,2724,2721,2715,2713,2708,2706,2701,2698,2691,2687,2681,2674,2669,2662,2655,2648,2642,2636,2630,2624,2619,2613,2608,2602,2598,2591,2587,2581,2577,2572,2569,2563,2562,2557,2554,2550,2547,2542,2542,2543,2547,2554,2564,2576,2593,2611,2630,2650,2671,2689,2704,2717,2726,2734,2737,2741,2740,2741,2739,2740,2739,2741,2740,2741,2740,2740,2738,2740,2738,2739,2737,2738,2736,2735,2732,2731,2726,2724,2720,2715,2709,2703,2697,2689,2683,2676,2669,2663,2656,2649,2645,2638,2635,2629,2626,2619,2618,2610,2607,2602,2597,2590,2588,2584,2585,2587,2595,2605,2619,2634,2652,2670,2689,2706,2724,2739,2752,2760,2766,2771,2773,2775,2776,2778,2777,2776,2774,2773,2770,2771,2766,2766,2763,2763,2758,2757,2753,2751,2745,2741,2734,2729,2722,2715,2705,2700,2692,2688,2681,2675,2669,2663,2657,2652,2648,2644,2639,2632,2628,2622,2619,2613,2610,2605,2602,2595,2594,2592,2597,2601,2613,2624,2641,2659,2681,2701,2724,2744,2763,2777,2791,2799,2807,2810,2813,2814,2813,2812,2810,2809,2805,2802,2797,2793,2788,2785,2781,2780,2776,2774,2770,2770,2766,2765,2760,2757,2751,2744,2736,2730,2720,2712,2702,2693,2681,2673,2662,2652,2642,2632,2623,2615,2607,2601,2594,2587,2581,2573,2569,2563,2560,2555,2552,2550,2554,2560,2573,2586,2607,2625,2649,2670,2695,2718,2740,2757,2774,2783,2793,2799,2804,2806,2808,2807,2808,2808,2807,2805,2803,2800,2797,2795,2790,2789,2784,2783,2777,2775,2769,2765,2760,2755,2745,2739,2729,2720,2707,2699,2687,2677,2666,2657,2645,2636,2626,2618,2609,2601,2594,2587,2580,2573,2567,2561,2556,2550,2546,2541,2541,2540,2547,2555,2569,2584,2604,2625,2650,2673,2700,2721,2743,2760,2775,2785,2795,2800,2803,2805,2807,2806,2806,2803,2801,2797,2794,2791,2787,2784,2780,2775,2769,2765,2760,2755,2748,2742,2734,2726,2716,2708,2697,2688,2675,2667,2656,2648,2636,2627,2617,2609,2600,2592,2583,2577,2569,2563,2556,2552,2546,2544,2546,2550,2558,2570,2587,2606,2628,2650,2675,2698,2720,2738,2756,2768,2780,2785,2793,2794,2798,2796,2797,2797,2796,2792,2789,2784,2781,2775,2771,2765,2761,2755,2750,2744,2738,2733,2728,2720,2712,2705,2696,2687,2678,2669,2660,2652,2642,2633,2624,2617,2609,2602,2595,2590,2583,2577,2571,2565,2558,2553,2548,2546,2544,2548,2553,2565,2578,2596,2616,2638,2662,2687,2711,2733,2753,2768,2782,2791,2801,2808,2814,2816,2819,2818,2819,2817,2816,2813,2811,2804,2801,2794,2790,2784,2779,2772,2766,2760,2754,2746,2739,2731,2725,2716,2708,2701,2693,2685,2676,2667,2658,2650,2638,2630,2620,2611,2602,2593,2584,2578,2571,2565,2558,2555,2548,2545,2542,2541,2541,2547,2556,2570,2587,2608,2630,2658,2683,2710,2736,2760,2780,2796,2810,2819,2827,2832,2834,2835,2835,2834,2833,2828,2824,2819,2814,2806,2799,2790,2783,2773,2764,2755,2748,2739,2730,2721,2713,2704,2696,2685,2676,2666,2656,2645,2635,2625,2614,2605,2595,2586,2576,2567,2559,2551,2543,2536,2528,2522,2514,2508,2499,2495,2489,2486,2483,2486,2492,2503,2517,2536,2558,2585,2611,2640,2667,2694,2716,2736,2752,2763,2773,2779,2783,2787,2789,2791,2791,2790,2789,2787,2784,2779,2776,2771,2770,2765,2763,2760,2759,2758,2759,2761,2764,2764,2767,2766,2766,2764,2764,2761,2759,2754,2747,2741,2734,2725,2716,2708,2699,2689,2679,2669,2658,2647,2638,2630,2625,2625,2626,2633,2642,2656,2670,2689,2707,2725,2740,2754,2765,2773,2777,2779,2778,2776,2772,2767,2762,2757,2752,2746,2741,2734,2728,2722,2717,2712,2707,2702,2696,2689,2684,2678,2672,2665,2660,2652,2642,2633,2625,2616,2606,2597,2588,2578,2569,2559,2550,2543,2537,2531,2527,2522,2518,2517,2520,2525,2534,2548,2565,2584,2606,2628,2653,2677,2700,2720,2737,2750,2761,2768,2774,2777,2779,2780,2778,2776,2774,2770,2766,2762,2757,2752,2747,2742,2738,2733,2728,2724,2719,2713,2709,2704,2699,2692,2684,2676,2668,2659,2652,2643,2635,2627,2619,2613,2606,2600,2593,2588,2582,2575,2571,2566,2563,2562,2566,2571,2582,2596,2612,2632,2655,2678,2702,2723,2743,2760,2773,2783,2791,2797,2801,2804,2804,2804,2803,2803,2802,2798,2793,2790,2787,2783,2779,2775,2771,2766,2760,2757,2753,2747,2740,2732,2724,2716,2707,2699,2689,2680,2669,2660,2650,2640,2630,2621,2612,2602,2593,2584,2576,2569,2561,2554,2548,2542,2536,2534,2536,2540,2547,2562,2579,2599,2623,2648,2674,2701,2725,2748,2769,2785,2798,2809,2816,2821,2826,2828,2830,2830,2830,2828,2825,2821,2816,2812,2806,2801,2795,2790,2787,2781,2776,2771,2767,2760,2755,2749,2741,2733,2722,2711,2701,2690,2678,2667,2656,2644,2635,2626,2618,2611,2603,2597,2591,2586,2580,2576,2571,2565,2560,2553,2550,2549,2551,2556,2567,2582,2599,2620,2644,2669,2695,2720,2745,2765,2782,2795,2805,2814,2818,2822,2824,2824,2823,2820,2816,2811,2807,2802,2795,2789,2781,2775,2770,2764,2758,2753,2748,2741,2735,2728,2721,2713,2704,2695,2686,2676,2666,2655,2645,2636,2627,2619,2609,2601,2593,2587,2580,2574,2568,2563,2558,2552,2547,2543,2538,2533,2527,2524,2521,2522,2525,2532,2545,2562,2583,2606,2632,2660,2688,2716,2742,2764,2783,2797,2807,2814,2818,2821,2822,2820,2818,2816,2811,2808,2804,2800,2796,2792,2787,2784,2781,2777,2773,2769,2763,2758,2752,2745,2739,2729,2719,2709,2700,2689,2680,2670,2661,2649,2640,2628,2620,2611,2602,2595,2588,2580,2572,2566,2560,2554,2551,2550,2552,2558,2568,2583,2601,2624,2647,2675,2702,2728,2751,2772,2790,2804,2815,4,2,5
2762,2756,2753,2747,2742,2735,2732,2728,2725,2720,2717,2712,2708,2701,2696,2691,2687,2683,2679,2674,2670,2666,2660,2656,2650,2645,2639,2633,2627,2623,2618,2615,2610,2607,2604,2603,2599,2597,2594,2592,2590,2588,2585,2584,2582,2583,2585,2595,2607,2623,2639,2657,2677,2697,2715,2731,2745,2755,2761,2761,2760,2757,2753,2748,2743,2738,2735,2730,2728,2723,2719,2715,2710,2705,2700,2694,2691,2685,2682,2676,2672,2666,2662,2657,2650,2644,2638,2630,2623,2616,2611,2605,2600,2594,2591,2588,2585,2582,2580,2579,2577,2577,2575,2574,2572,2569,2567,2568,2569,2573,2578,2591,2603,2622,2642,2663,2684,2705,2725,2741,2753,2762,2766,2765,2761,2758,2752,2746,2739,2735,2729,2723,2719,2714,2710,2704,2700,2694,2691,2685,2681,2676,2672,2667,2664,2658,2653,2647,2643,2635,2630,2622,2617,2612,2608,2604,2600,2595,2593,2590,2588,2586,2584,2582,2580,2577,2575,2572,2570,2570,2573,2580,2590,2603,2619,2638,2658,2679,2699,2720,2736,2750,2758,2764,2764,2762,2756,2751,2744,2739,2732,2726,2719,2715,2709,2705,2700,2697,2693,2691,2687,2684,2682,2681,2680,2679,2678,2677,2676,2673,2671,2667,2664,2659,2654,2649,2644,2639,2634,2629,2625,2618,2614,2609,2606,2602,2601,2602,2606,2615,2628,2643,2660,2678,2700,2719,2738,2755,2769,2777,2783,2784,2782,2778,2772,2766,2760,2753,2745,2740,2733,2726,2720,2714,2708,2703,2697,2693,2690,2684,2680,2678,2672,2669,2663,2658,2652,2646,2638,2633,2628,2622,2617,2614,2610,2608,2605,2603,2601,2599,2596,2596,2597,2599,2604,2612,2622,2636,2654,2673,2694,2714,2732,2747,2762,2770,2777,2778,2778,2775,2770,2764,2759,2753,2747,2740,2735,2730,2725,2719,2713,2706,2700,2695,2690,2684,2680,2676,2672,2667,2661,2656,2651,2647,2640,2633,2629,2624,2618,2615,2611,2608,2605,2603,2599,2597,2594,2592,2590,2591,2591,2598,2605,2618,2634,2652,2671,2692,2713,2734,2751,2766,2776,2782,2784,2783,2783,2781,2776,2772,2767,2761,2755,2749,2744,2737,2729,2720,2712,2702,2696,2688,2680,2674,2668,2663,2660,2654,2650,2645,2640,2633,2628,2622,2619,2614,2610,2605,2601,2598,2593,2590,2587,2585,2582,2578,2577,2575,2574,2578,2584,2594,2607,2624,2640,2661,2680,2699,2717,2734,2745,2755,2759,2761,2760,2760,2756,2753,2748,2745,2741,2737,2730,2724,2717,2710,2701,2694,2687,2679,2673,2666,2662,2659,2656,2654,2650,2648,2644,2639,2635,2631,2625,2620,2615,2611,2605,2602,2599,2596,2594,2591,2589,2588,2586,2584,2582,2580,2577,2575,2573,2570,2568,2567,2568,2572,2580,2590,2604,2621,2639,2659,2679,2698,2716,2732,2743,2751,2755,2757,2757,2755,2753,2751,2749,2747,2744,2743,2740,2735,2731,2724,2719,2712,2706,2699,2692,2686,2682,2678,2676,2672,2668,2665,2661,2657,2652,2648,2645,2638,2633,2628,2624,2620,2618,2615,2613,2611,2609,2607,2606,2605,2605,2604,2603,2601,2600,2599,2599,2598,2598,2598,2599,2604,2614,2626,2640,2658,2676,2694,2715,2735,2752,2766,2776,2782,2786,2787,2785,2785,2781,2778,2775,2774,2771,2768,2765,2760,2757,2753,2748,2743,2739,2734,2730,2728,2725,2722,2719,2717,2713,2709,2706,2702,2696,2691,2687,2682,2678,2674,2670,2669,2666,2665,2664,2663,2662,2661,2659,2656,2655,2653,2652,2653,2657,2663,2672,2685,2698,2715,2733,2748,2764,2779,2789,2796,2802,2804,2804,2802,2798,2794,2791,2788,2784,2782,2779,2775,2771,2767,2763,2758,2753,2748,2744,2740,2736,2731,2727,2724,2720,2714,2710,2705,2701,2695,2689,2684,2681,2677,2674,2670,2667,2664,2661,2658,2656,2653,2652,2650,2648,2647,2646,2647,2651,2658,2668,2681,2696,2711,2726,2743,2758,2773,2784,2791,2796,2796,2795,2795,2792,2788,2784,2782,2778,2776,2772,2770,2765,2760,2755,2751,2745,2741,2735,2731,2727,2725,2721,2717,2714,2711,2708,2704,2700,2695,2690,2686,2682,2678,2675,2672,2670,2666,2663,2661,2660,2655,2654,2652,2651,2648,2646,2643,2642,2640,2642,2646,2655,2666,2681,2696,2713,2729,2746,2762,2776,2786,2793,2795,2796,2794,2791,2788,2785,2781,2778,2776,2773,2771,2766,2764,2761,2757,2751,2747,2742,2736,2731,2728,2724,2721,2717,2714,2709,2705,2700,2696,2690,2687,2682,2679,2674,2670,2666,2662,2659,2656,2653,2650,2647,2644,2642,2640,2637,2634,2632,2629,2627,2626,2628,2629,2636,2644,2656,2670,2687,2704,2722,2739,2755,2766,2777,2783,2785,2784,2782,2778,2776,2771,2768,2764,2761,2758,2757,2755,2752,2748,2745,2741,2737,2734,2729,2727,2723,2721,2717,2715,2710,2706,2700,2698,2691,2688,2683,2680,2675,2672,2668,2667,2664,2661,2658,2658,2655,2653,2651,2650,2648,2645,2643,2641,2640,2641,2644,2650,2660,2671,2685,2701,2719,2735,2752,2764,2777,2785,2791,2790,2790,2786,2783,2778,2775,2772,2769,2765,2763,2758,2755,2752,2749,2744,2742,2737,2734,2730,2728,2724,2720,2715,2711,2706,2700,2695,2689,2683,2676,2672,2668,2663,2659,2657,2653,2652,2649,2647,2645,2645,2642,2642,2641,2645,2648,2657,2665,2679,2692,2708,2721,2736,2750,2762,2769,2774,2775,2774,2769,2764,2757,2752,2748,2742,2738,2734,2730,2725,2722,2717,2715,2711,2708,2703,2700,2694,2693,2690,2690,2685,2682,2677,2673,2668,2663,2658,2655,2649,2645,2640,2639,2638,2637,2636,2636,2635,2635,2634,2635,2636,2635,2634,2635,2640,2646,2655,2666,2682,2697,2715,2732,2750,2764,2780,2789,2798,2802,2805,2804,2803,2800,2799,2796,2795,2792,2790,2786,2784,2779,2775,2769,2765,2759,2753,2747,2742,2739,2734,2729,2725,2721,2714,2710,2705,2700,2693,2689,2682,2678,2673,2669,2664,2662,2656,2654,2651,2650,2645,2644,2641,2638,2634,2634,2632,2636,2639,2647,2657,2672,2688,2705,2722,2740,2756,2769,2781,2788,2791,2791,2791,2789,2786,2783,2781,2777,2775,2771,2770,2766,2762,2755,2751,2744,2739,2732,2727,2719,2714,2707,2704,2698,2694,2688,2684,2677,2672,2667,2661,2656,2651,2647,2644,2639,2635,2632,2630,2627,2623,2622,2619,2616,2612,2609,2606,2605,2601,2600,2598,2600,2603,2611,2623,2639,2655,2673,2689,2708,2725,2741,2752,2763,2768,2769,2767,2766,2763,2760,2756,2752,2749,2744,2739,2734,2730,2724,2719,2712,2707,2700,2696,2690,2687,2682,2680,2673,2671,2665,2661,2655,2652,2646,2642,2637,2634,2630,2628,2623,2622,2618,2616,2614,2613,2611,2609,2607,2606,2606,2609,2615,2622,2634,2647,2661,2676,2694,2709,2726,2738,2749,2754,2759,2757,2757,2753,2751,2745,2742,2737,2733,2728,2725,2719,2717,2712,2707,2702,2698,2693,2689,2685,2681,2677,2673,2668,2664,2658,2652,2647,2641,2637,2632,2629,2623,2621,2615,2614,2610,2610,2605,2605,2602,2601,2598,2600,2601,2608,2614,2628,2640,2657,2671,2690,2706,2722,2734,2745,2751,2755,2756,2756,2755,2754,2751,2749,2747,2744,2743,2739,2736,2730,2725,2718,2713,2707,2703,2697,2693,2688,2687,2682,2680,2675,2672,2667,2662,2655,2652,2645,2642,2636,2632,2628,2625,2620,2616,2612,2610,2608,2605,2601,2598,2598,2599,2602,2607,2618,2630,2645,2660,2677,2693,2712,2725,2739,2748,2757,2759,2761,2759,2760,2757,2757,2754,2753,2750,2747,2743,2738,2733,2728,2721,2715,2708,2701,2695,2691,2687,2683,2681,2678,2674,2670,2666,2661,2657,2650,2647,2640,2637,2629,2626,2621,2618,2614,2614,2610,2611,2607,2608,2604,2605,2602,2602,2600,2599,2599,2603,2608,2617,2629,2644,2661,2678,2696,2712,2728,2741,2751,2758,2761,2762,2763,2761,2759,2755,2755,2752,2749,2745,2742,2738,2735,2729,2724,2717,2711,2703,2700,2694,2692,2686,2684,2678,2676,2671,2670,2666,2661,2658,2654,2650,2646,2643,2639,2635,2632,2630,2628,2627,2625,2624,2622,2623,2620,2621,2619,2620,2616,2618,2616,2617,2616,2620,2625,2636,2648,2665,2681,2701,2718,2739,2757,2772,2785,2794,2797,2798,2796,2793,2789,2783,2778,2772,2769,2765,2761,2756,2752,2746,2743,2736,2732,2727,2722,2716,2713,2708,2705,2701,2699,2692,2688,2682,2678,2672,2667,2661,2659,2653,2649,2646,2644,2640,2638,2635,2634,2632,2629,2627,2625,2622,2620,2620,2620,2624,2629,2640,2652,2668,2681,2699,2716,2732,2746,2759,2767,2774,2774,2774,2770,2768,2762,2759,2753,2749,2743,2739,2734,2731,2727,2723,2719,2715,2713,2711,2709,2706,2703,2700,2697,2693,2691,2685,2681,2674,2671,2665,2662,2656,2655,2650,2649,2646,2645,2641,2642,2637,2637,2633,2632,2629,2629,2629,2633,2640,2649,2662,2676,2691,2708,2724,2739,2752,2763,2770,2773,2774,2771,2769,2764,2761,2755,2752,2748,2744,2738,2734,2728,2725,2719,2715,2706,2702,2694,2691,2687,2684,2679,2676,2670,2665,2659,2654,2649,2643,2637,2631,2625,2621,2616,2612,2611,2609,2607,2605,2603,2602,2603,2601,2601,2599,2600,2599,2603,2606,2615,2625,2640,2655,2673,2692,2711,2727,2745,2758,2769,2775,2779,2779,2779,2778,2777,2775,2775,2773,2772,2769,2766,2764,2760,2756,2748,2744,2736,2732,2726,2723,2719,2717,2711,2707,2702,2701,2695,2693,2685,2681,2674,2670,2663,2661,2656,2654,2649,2646,2643,2641,2638,2637,2633,2631,2630,2627,2623,2619,2616,2613,2614,2615,2622,2631,2644,2658,2677,2695,2717,2734,2754,2767,2781,2787,2794,2794,2795,2792,2791,2788,2788,2784,2782,2777,2775,2769,2766,2759,2755,2749,2743,2737,2732,2727,2723,2719,2714,2711,2705,2702,2697,2695,2689,2684,2677,2674,2667,2663,2659,2657,2652,2650,2643,2643,2639,2639,2636,2636,2634,2632,2629,2628,2626,2628,2629,2635,2645,2657,2670,2688,2705,2722,2739,2757,2772,2782,2791,2794,2796,2794,2792,2790,2788,2782,2780,2775,2772,2765,2763,2757,2753,2747,2744,2737,2733,2728,2726,2721,2719,2714,2711,2706,2701,2695,2690,2683,2678,2671,2666,2662,2657,2656,2653,2650,2645,2645,2641,2639,2637,2636,2633,2634,2632,2637,2642,2656,2667,2683,2699,2719,2735,2754,2768,2783,2792,2801,2803,2804,2802,2801,2797,2794,2790,2788,2783,2777,2772,2768,2765,2758,2751,2744,2738,2731,2726,2721,2718,2711,2709,2702,2699,2691,2688,2680,2677,2670,2665,2658,2654,2647,2645,2638,2622,2621,2617,2617,2613,2611,2611,2614,2621,2631,2644,2660,2677,2696,2714,2734,2753,2768,2780,2786,2793,2793,2794,2792,2790,2787,2785,2781,2780,2775,2774,2767,2763,2756,2751,2741,2736,2727,2722,2715,2710,2702,2698,2694,2688,2682,2678,2671,2665,2658,2652,2647,2642,2637,2631,2627,2622,2619,2613,2612,2609,2608,2604,2603,2599,2597,2595,2594,2591,2588,2583,2581,2577,2577,2579,2586,2596,2609,2623,2641,2661,2682,2700,2719,2735,2746,2754,2758,2761,2761,2760,2757,2754,2751,2749,2746,2745,2742,2739,2733,2730,2723,2718,2710,2706,2698,2693,2687,2684,2679,2675,2670,2668,2663,2658,2652,2649,2642,2638,2632,2628,2624,2620,2616,2615,2613,2612,2611,2609,2608,2606,2605,2603,2602,2599,2598,2595,2594,2591,2592,2591,2597,2601,2613,2626,2643,2660,2680,2699,2720,2737,2754,2767,2778,2781,2784,2782,2781,2778,2775,2771,2768,2765,2761,2758,2756,2753,2748,2744,2739,2734,2728,2725,2718,2715,2710,2706,2701,2698,2692,2689,2683,2679,2672,2668,2661,2657,2651,2649,2644,2641,2637,2635,2632,2630,2626,2625,2623,2619,2616,2614,2612,2611,2611,2610,2616,2624,2637,2651,2669,2686,2707,2724,2744,2759,2773,2781,2786,2787,2789,2785,2784,2778,2775,2771,2769,2764,2762,2759,2755,2749,2745,2739,2735,2729,2724,2719,2716,2712,2708,2704,2700,2695,2691,2686,2680,2676,2670,2666,2660,2657,2652,2650,2646,2643,2639,2638,2634,2633,2629,2628,2625,2624,2621,2626,2630,2640,2650,2664,2679,2696,2711,2728,2744,2757,2766,2773,2775,2773,2771,2767,2765,2759,2757,2752,2750,2745,2742,2737,2735,2731,2728,2723,2720,2714,2711,2705,2704,2699,2697,2692,2688,2682,2678,2673,2669,2662,2658,2653,2648,2643,2639,2636,2632,2629,2626,2625,2623,2621,2619,2618,2616,2616,2615,2617,2621,2630,2640,2654,2670,2688,2705,2724,2739,2755,2766,2776,2777,2779,2778,2774,2768,2764,2759,2753,2748,2744,2739,2736,2734,2730,2727,2724,2720,2716,2714,2710,2708,2705,2703,2699,2696,2692,2687,2682,2678,2671,2668,2661,2658,2652,2648,2643,2642,2638,2635,2632,2630,2628,2629,2629,2633,2638,2647,2657,2671,2686,2703,2721,2736,2750,2762,2771,2776,2779,2778,2776,2772,2770,2764,2761,2755,2751,2747,2745,2741,2738,2733,2730,2724,2720,2714,2711,2708,2704,2698,2694,2689,2684,2678,2672,2666,2661,2655,2649,2644,2639,2636,2633,2628,2625,2623,2619,2617,2614,2615,2616,2622,2630,2642,2655,2673,2690,2710,2727,2744,2760,2773,2781,2786,2787,2789,2785,2782,2780,2777,2773,2770,2766,2762,2758,2753,2747,2741,2735,2728,2723,2716,2711,2706,2702,2696,2694,2688,2683,2677,2672,2664,2660,2653,2648,2641,2637,2632,2630,2624,2621,2618,2616,2611,2610,2608,2606,2605,2607,2612,2622,2633,2649,2666,2684,2704,2723,2741,2757,2771,2779,2786,2787,2788,2786,2785,2780,2777,2772,2769,2764,2761,2754,2750,2741,2735,2727,2721,2713,2706,2699,2694,2689,2685,2678,2674,2668,2662,2656,2650,2645,2638,2632,2626,2620,2613,2610,2606,2604,2600,2598,2594,2594,2591,2591,2589,2591,2587,2586,2583,2583,2581,2584,2591,2602,2614,2631,2649,2671,2691,2713,2732,2750,2762,2770,2775,2777,2776,2773,2770,2764,2760,2755,2752,2748,2743,2738,2732,2726,2718,2710,2703,2693,2688,2679,2675,2668,2664,2658,2653,2648,2644,2638,2635,2629,2624,2618,2615,2610,2608,2604,2601,2599,2598,2597,2595,2595,2594,2595,2595,2595,2595,2593,2592,2592,2590,2589,2586,2585,2583,2585,2588,2595,2605,2618,2635,2654,2675,2696,2717,2736,2752,2764,2771,2776,2777,2776,2771,2767,2761,2757,2753,2749,2747,2744,2741,2737,2733,2729,2725,2720,2716,2709,2707,2703,2700,2696,2693,2688,2685,2679,2675,2669,2665,2657,2651,2646,2643,2637,2635,2633,2631,2629,2630,2628,2628,2628,2628,2627,2627,2624,2623,2623,2622,2625,2630,2638,2649,2662,2677,2695,2711,2728,2741,2755,2763,2771,2772,2772,2770,2766,2760,2756,2750,2747,2742,2739,2734,2730,2726,2722,2718,2716,2712,2709,2705,2702,2698,2695,2693,2690,2686,2680,2677,2672,2669,2666,2663,2661,2659,2656,2654,2653,2653,2651,2652,2650,2650,2647,2647,2645,2645,2642,2642,2640,2644,2650,2658,2670,2686,2699,2715,2734,2751,2765,2777,2787,2793,2796,2793,2790,2786,2781,2775,2773,2770,2767,2762,2759,2755,2753,2749,2747,2741,2737,2732,2729,2725,2721,2717,2714,2709,2706,2703,2700,2696,2690,2686,2681,2677,2673,2669,2665,2661,2658,2656,2653,2651,2650,2649,2647,2646,2644,2643,2640,2637,2634,2633,2633,2637,2641,2649,2659,2676,2691,2710,2727,2746,2763,2776,2787,2796,2799,2800,2798,2796,2792,2789,2785,2783,2781,2778,2777,2773,2770,2766,2762,2757,2753,2748,2743,2738,2735,2730,2726,2722,2720,2715,2712,2707,2703,2697,2694,2688,2684,2680,2677,2673,2671,2667,2665,2663,2660,2658,2657,2656,2654,2652,2651,2648,2646,2645,2643,2641,2638,2636,2635,2636,2638,2645,2654,2668,2682,2700,2718,2735,2753,2768,2781,2789,2793,2796,2794,2790,2785,2781,2778,2773,2771,2769,2768,2765,2761,2759,2754,2751,2746,2741,2737,2732,2728,2723,2720,2717,2713,2710,2707,2702,2698,2692,2688,2683,2678,2672,2671,2666,2663,2659,2657,2654,2652,2649,2648,2647,2646,2644,2642,2640,2638,2636,2634,2632,2629,2627,2627,2629,2636,2645,2657,2672,2689,2707,2725,2743,2758,2772,2781,2788,2790,2790,2785,2782,2776,2773,2768,2765,2760,2757,2752,2750,2747,2745,2741,2736,2732,2729,2725,2723,2720,2716,2713,2710,2706,2703,2698,2693,2689,2685,2679,2674,2670,2663,2658,2653,2649,2643,2640,2634,2630,2626,2622,2618,2616,2612,2610,2609,2611,2614,2622,2632,2646,2662,2678,2695,2713,2729,2742,2753,2761,2765,2766,2764,2761,2757,2753,2749,2745,2743,2740,2737,2734,2731,2729,2727,2724,2721,2719,2717,2714,2714,2710,2708,2704,2702,2696,2691,2685,2679,2673,2668,2663,2661,2657,2653,2650,2648,2646,2645,2643,2642,2640,2637,2635,2633,2632,2632,2635,2640,2649,2660,2674,2689,2705,2722,2740,2755,2769,2778,2787,2789,2790,2789,2786,2783,2779,2773,2770,2766,2761,2755,2750,2745,2738,2730,2723,2717,2711,2706,2700,2698,2695,2693,2691,2688,2686,2684,2681,2679,2676,2674,2670,2666,2661,2658,2654,2650,2645,2641,2637,2633,2628,2625,2622,2618,2613,2611,2609,2609,2612,2616,2625,2638,2652,2669,2688,2708,2726,2742,2758,2769,2777,2782,2782,2781,2778,2775,2771,2767,2764,2759,2756,2751,2747,2742,2737,2730,2723,2717,2710,2703,2698,2693,2688,2684,2678,2673,2670,2666,2661,2656,2650,2646,2641,2637,2633,2630,2624,2622,2618,2616,2614,2613,2610,2608,2606,2604,2602,10,11,8
2728,2744,2761,2774,2784,2793,2799,2803,2808,2814,2817,2817,2815,2813,2809,2797,2787,2780,2772,2763,2754,2745,2736,2727,2719,2711,2704,2690,2679,2668,2652,2644,2635,2626,2618,2609,2599,2589,2581,2573,2568,2564,2562,2564,2569,2577,2586,2597,2608,2633,2658,2670,2683,2696,2706,2716,2723,2729,2739,2743,2745,2749,2751,2752,2751,2751,2746,2735,2729,2718,2708,2694,2683,2674,2663,2656,2644,2639,2631,2618,2611,2604,2597,2589,2581,2574,2566,2560,2553,2547,2542,2541,2541,2541,2554,2568,2578,2591,2606,2636,2650,2661,2672,2681,2691,2701,2706,2707,2708,2711,2710,2712,2710,2707,2699,2693,2689,2681,2671,2665,2660,2654,2650,2645,2641,2637,2632,2628,2620,2610,2606,2599,2595,2587,2582,2576,2566,2553,2543,2532,2520,2511,2506,2501,2495,2490,2478,2471,2467,2461,2457,2454,2460,2476,2490,2508,2526,2545,2589,2622,2642,2664,2681,2696,2706,2716,2722,2728,2731,2735,2739,2741,2745,2746,2745,2746,2742,2738,2734,2729,2723,2717,2712,2707,2703,2698,2693,2689,2687,2683,2681,2677,2673,2670,2667,2663,2655,2647,2643,2635,2631,2625,2620,2616,2608,2601,2598,2593,2589,2583,2578,2575,2572,2571,2571,2572,2583,2600,2611,2627,2642,2658,2689,2718,2731,2738,2745,2749,2750,2749,2750,2747,2746,2740,2735,2728,2715,2709,2704,2699,2694,2685,2682,2679,2675,2668,2663,2659,2655,2650,2646,2641,2635,2632,2625,2615,2611,2602,2596,2589,2579,2574,2572,2571,2581,2592,2602,2616,2632,2646,2677,2705,2717,2736,2759,2770,2774,2779,2781,2784,2786,2790,2793,2795,2797,2797,2794,2791,2786,2783,2778,2767,2759,2753,2746,2743,2735,2725,2713,2702,2696,2690,2678,2670,2665,2654,2646,2642,2631,2626,2623,2614,2608,2605,2602,2602,2603,2610,2632,2647,2661,2680,2696,2729,2766,2789,2799,2807,2817,2825,2826,2830,2829,2832,2832,2833,2833,2828,2823,2818,2811,2807,2798,2786,2771,2764,2758,2747,2740,2737,2731,2727,2719,2714,2706,2701,2694,2688,2681,2676,2668,2655,2646,2632,2628,2621,2614,2607,2601,2596,2591,2585,2579,2576,2564,2554,2545,2539,2528,2523,2520,2516,2514,2511,2509,2506,2515,2527,2544,2567,2590,2619,2646,2690,2745,2772,2799,2823,2837,2853,2860,2866,2869,2870,2871,2870,2871,2870,2867,2861,2859,2853,2848,2842,2829,2817,2813,2802,2787,2783,2775,2770,2762,2756,2750,2743,2736,2729,2721,2705,2695,2689,2680,2666,2651,2641,2633,2625,2619,2612,2608,2600,2587,2582,2570,2561,2553,2546,2541,2535,2532,2522,2517,2511,2505,2499,2499,2503,2512,2526,2547,2573,2598,2631,2661,2697,2731,2764,2794,2819,2850,2873,2877,2880,2879,2876,2874,2871,2866,2864,2860,2854,2848,2833,2818,2809,2803,2793,2785,2776,2769,2761,2748,2733,2719,2709,2695,2690,2682,2674,2660,2642,2631,2624,2609,2595,2590,2584,2580,2575,2571,2567,2564,2555,2545,2541,2538,2534,2531,2525,2535,2548,2567,2592,2616,2658,2723,2783,2831,2859,2868,2872,2873,2869,2866,2861,2854,2849,2845,2835,2818,2814,2800,2790,2785,2773,2761,2753,2740,2724,2706,2696,2689,2668,2655,2638,2627,2617,2601,2591,2583,2579,2574,2563,2563,2558,2554,2553,2565,2581,2609,2655,2680,2705,2736,2762,2813,2845,2858,2871,2879,2882,2884,2885,2886,2885,2883,2884,2882,2876,2873,2865,2852,2846,2837,2818,2800,2783,2767,2756,2750,2737,2720,2710,2701,2687,2666,2646,2626,2608,2590,2582,2575,2568,2563,2559,2564,2575,2587,2604,2650,2682,2708,2733,2774,2818,2839,2867,2872,2880,2883,2886,2889,2888,2890,2890,2889,2888,2883,2881,2874,2860,2853,2843,2836,2820,2804,2791,2775,2769,2757,2739,2731,2712,2688,2674,2654,2636,2627,2615,2607,2594,2575,2567,2559,2553,2550,2558,2569,2594,2629,2654,2705,2731,2779,2798,2819,2833,2839,2844,2844,2845,2846,2843,2842,2837,2834,2825,2816,2803,2790,2783,2774,2767,2757,2742,2724,2715,2704,2694,2686,2670,2645,2624,2612,2590,2577,2569,2558,2548,2537,2529,2518,2506,2496,2483,2480,2479,2485,2494,2525,2568,2623,2662,2694,2738,2753,2766,2777,2783,2793,2798,2798,2800,2802,2801,2795,2787,2784,2775,2769,2754,2735,2723,2716,2710,2703,2696,2687,2673,2658,2643,2628,2619,2610,2602,2591,2576,2570,2563,2549,2536,2532,2534,2538,2544,2569,2592,2608,2627,2649,2687,2704,2717,2730,2737,2744,2749,2750,2749,2751,2751,2749,2742,2739,2729,2721,2716,2706,2695,2687,2677,2673,2668,2663,2653,2642,2635,2622,2613,2608,2601,2596,2587,2573,2568,2561,2555,2549,2538,2531,2537,2552,2566,2580,2596,2614,2636,2656,2675,2707,2729,2738,2751,2763,2770,2771,2773,2774,2777,2779,2776,2765,2755,2749,2743,2735,2729,2720,2706,2693,2689,2680,2671,2667,2659,2647,2641,2634,2620,2613,2599,2593,2586,2581,2572,2560,2552,2551,2556,2565,2591,2605,2637,2679,2706,2721,2734,2749,2765,2768,2775,2778,2784,2789,2792,2792,2791,2788,2781,2774,2768,2760,2755,2747,2740,2732,2728,2720,2709,2704,2700,2690,2683,2678,2671,2666,2659,2654,2645,2631,2620,2613,2607,2594,2586,2582,2571,2562,2557,2552,2548,2541,2532,2527,2527,2544,2558,2592,2618,2639,2663,2687,2711,2734,2754,2769,2784,2792,2803,2811,2812,2815,2818,2819,2818,2811,2806,2800,2794,2780,2773,2766,2757,2748,2735,2726,2717,2711,2698,2692,2685,2679,2671,2664,2656,2649,2641,2626,2619,2614,2607,2601,2589,2578,2572,2566,2559,2554,2547,2543,2536,2524,2520,2514,2510,2507,2502,2499,2493,2487,2486,2482,2489,2497,2531,2557,2600,2645,2683,2737,2760,2798,2809,2821,2824,2825,2827,2827,2825,2824,2822,2812,2801,2794,2779,2764,2756,2752,2742,2734,2730,2724,2720,2713,2701,2695,2689,2675,2667,2658,2647,2641,2633,2621,2614,2609,2603,2592,2587,2581,2575,2570,2566,2565,2567,2582,2594,2625,2667,2691,2711,2732,2748,2767,2785,2789,2795,2798,2798,2797,2795,2791,2789,2784,2778,2774,2765,2753,2747,2736,2725,2717,2710,2706,2700,2695,2690,2677,2671,2666,2658,2646,2631,2624,2618,2611,2606,2597,2588,2584,2574,2569,2565,2560,2551,2545,2543,2544,2548,2557,2572,2587,2609,2629,2671,2729,2763,2791,2818,2825,2837,2840,2842,2843,2842,2843,2841,2838,2830,2821,2816,2807,2801,2786,2772,2758,2750,2746,2740,2735,2731,2725,2721,2713,2698,2692,2684,2677,2664,2646,2634,2623,2611,2604,2591,2580,2575,2571,2566,2563,2558,2555,2554,2555,2561,2573,2588,2606,2628,2649,2673,2698,2723,2749,2773,2794,2811,2825,2832,2839,2842,2846,2850,2850,2849,2850,2850,2849,2848,2841,2837,2831,2825,2819,2813,2803,2788,2781,2775,2768,2763,2758,2746,2739,2729,2716,2709,2702,2694,2685,2668,2659,2652,2643,2636,2623,2610,2605,2599,2593,2586,2579,2574,2567,2561,2554,2549,2545,2539,2532,2526,2521,2515,2510,2508,2513,2524,2540,2561,2583,2617,2681,2740,2768,2793,2815,2832,2843,2851,2856,2859,2860,2861,2860,2861,2860,2858,2856,2854,2851,2847,2842,2833,2820,2811,2804,2789,2781,2774,2766,2757,2747,2742,2732,2717,2710,2701,2693,2676,2666,2652,2639,2632,2624,2617,2608,2595,2590,2577,2570,2565,2559,2553,2547,2544,2540,2542,2558,2574,2615,2642,2665,2692,2719,2746,2772,2793,2809,2823,2831,2837,2841,2844,2847,2848,2848,2847,2844,2840,2831,2825,2818,2812,2804,2798,2786,2773,2768,2761,2752,2739,2732,2724,2707,2687,2675,2668,2652,2635,2626,2617,2606,2590,2583,2575,2567,2561,2549,2539,2534,2528,2524,2530,2538,2551,2592,2621,2646,2671,2715,2774,2809,2825,2846,2853,2856,2858,2859,2860,2859,2859,2858,2855,2851,2847,2842,2835,2827,2819,2812,2804,2796,2789,2781,2775,2767,2759,2751,2743,2735,2727,2718,2708,2697,2685,2674,2663,2652,2642,2631,2620,2610,2599,2589,2580,2572,2564,2556,2549,2541,2532,2525,2518,2512,2506,2499,2492,2487,2482,2481,2484,2492,2505,2525,2547,2574,2604,2635,2670,2702,2737,2767,2795,2817,2835,2849,2859,2867,2872,2877,2878,2881,2884,2886,2886,2886,2881,2875,2869,2860,2852,2842,2831,2822,2813,2802,2792,2782,2774,2762,2746,2737,2729,2720,2710,2698,2687,2678,2667,2654,2642,2631,2619,2607,2585,2575,2557,2546,2538,2530,2522,2516,2509,2501,2496,2488,2476,2471,2465,2459,2455,2451,2450,2451,2457,2469,2489,2511,2538,2567,2600,2634,2670,2705,2739,2772,2800,2823,2838,2852,2861,2868,2873,2879,2883,2884,2887,2889,2889,2889,2888,2885,2881,2878,2865,2851,2844,2832,2821,2811,2801,2791,2783,2774,2766,2752,2736,2727,2717,2707,2696,2674,2661,2649,2637,2625,2612,2600,2590,2578,2568,2558,2549,2538,2531,2523,2515,2507,2500,2493,2485,2479,2472,2465,2460,2455,2448,2442,2437,2437,2443,2456,2473,2498,2526,2558,2590,2628,2661,2722,2780,2804,2828,2845,2857,2867,2872,2876,2878,2881,2883,2881,2879,2879,2876,2873,2865,2859,2851,2843,2833,2823,2814,2804,2794,2783,2775,2765,2758,2748,2740,2730,2719,2710,2693,2673,2664,2651,2640,2628,2617,2604,2594,2584,2575,2566,2557,2548,2539,2533,2524,2517,2511,2506,2500,2494,2488,2482,2478,2473,2468,2463,2465,2469,2480,2492,2528,2578,2607,2640,2676,2711,2747,2779,2807,2829,2846,2858,2865,2870,2872,2874,2874,2875,2873,2872,2870,2867,2863,2857,2852,2845,2837,2829,2822,2812,2803,2794,2785,2777,2768,2759,2750,2742,2731,2721,2709,2698,2685,2672,2658,2646,2634,2621,2609,2595,2573,2563,2555,2547,2538,2531,2523,2515,2510,2502,2498,2491,2486,2478,2472,2466,2460,2455,2450,2445,2440,2438,2438,2444,2455,2474,2500,2532,2567,2606,2648,2689,2733,2774,2815,2850,2881,2904,2921,2932,2939,2944,2945,2949,2949,2950,2948,2946,2942,2939,2934,2927,2922,2913,2905,2894,2871,2859,2848,2837,2828,2817,2806,2795,2786,2773,2762,2749,2737,2723,2709,2694,2678,2665,2650,2636,2621,2608,2594,2583,2572,2562,2551,2542,2533,2522,2515,2500,2491,2486,2479,2473,2467,2460,2454,2447,2443,2437,2435,2436,2444,2458,2480,2506,2539,2578,2618,2662,2706,2752,2794,2835,2869,2897,2917,2934,2946,2952,2957,2959,2962,2963,2966,2964,2965,2963,2962,2958,2951,2945,2937,2929,2918,2907,2893,2880,2866,2853,2839,2825,2814,2799,2787,2773,2760,2743,2730,2704,2679,2665,2649,2632,2617,2602,2588,2573,2561,2547,2535,2524,2513,2504,2494,2486,2476,2468,2458,2452,2443,2436,2430,2423,2417,2411,2406,2399,2397,2395,2401,2410,2429,2455,2486,2523,2563,2608,2654,2701,2747,2792,2831,2866,2893,2913,2930,2938,2945,2948,2951,2951,2951,2950,2949,2946,2943,2937,2930,2924,2914,2906,2892,2881,2868,2856,2842,2829,2816,2803,2791,2776,2766,2750,2737,2722,2709,2694,2678,2664,2647,2632,2615,2602,2586,2574,2560,2548,2535,2523,2513,2501,2493,2484,2476,2466,2459,2451,2444,2437,2431,2427,2420,2415,2408,2402,2397,2394,2393,2397,2407,2426,2452,2483,2521,2562,2608,2652,2701,2748,2794,2834,2868,2896,2916,2931,2937,2944,2944,2947,2945,2944,2941,2937,2933,2927,2923,2915,2908,2899,2892,2881,2871,2860,2848,2837,2826,2816,2804,2795,2782,2771,2757,2744,2729,2715,2702,2687,2672,2656,2643,2626,2614,2599,2587,2575,2562,2550,2540,2532,2523,2515,2504,2498,2489,2482,2476,2470,2468,2467,2472,2480,2496,2517,2549,2581,2618,2657,2697,2738,2778,2817,2850,2880,2903,2920,2930,2939,2943,2944,2945,2945,2942,2939,2936,2932,2928,2921,2914,2903,2894,2884,2871,2860,2847,2835,2823,2811,2797,2786,2773,2763,2751,2736,2725,2709,2697,2683,2669,2652,2638,2624,2608,2593,2577,2565,2551,2542,2530,2519,2506,2497,2488,2480,2474,2466,2461,2455,2449,2441,2434,2427,2423,2419,2419,2425,2436,2456,2480,2514,2550,2592,2634,2681,2728,2774,2819,2855,2889,2914,2935,2947,2957,2961,2965,2966,2968,2970,2968,2969,2965,2962,2956,2939,2930,2920,2908,2894,2878,2866,2850,2835,2819,2806,2792,2780,2765,2750,2736,2722,2707,2689,2674,2658,2645,2629,2614,2599,2585,2571,2557,2544,2532,2522,2508,2499,2487,2479,2468,2460,2451,2443,2438,2428,2422,2414,2410,2402,2398,2394,2395,2401,2414,2435,2460,2496,2533,2577,2621,2669,2717,2765,2809,2849,2883,2909,2930,2944,2955,2961,2967,2968,2970,2971,2971,2971,2967,2966,2961,2955,2946,2939,2929,2918,2904,2890,2877,2860,2847,2831,2817,2803,2790,2773,2759,2744,2728,2714,2697,2683,2665,2649,2632,2617,2599,2585,2570,2556,2542,2528,2518,2505,2495,2484,2476,2467,2458,2449,2441,2433,2426,2420,2414,2408,2403,2403,2406,2417,2433,2457,2488,2522,2563,2604,2649,2693,2740,2782,2822,2855,2882,2904,2919,2930,2937,2944,2946,2950,2951,2952,2951,2949,2946,2941,2936,2928,2921,2909,2899,2886,2872,2858,2845,2831,2816,2803,2788,2774,2759,2744,2727,2712,2697,2680,2664,2647,2631,2613,2598,2582,2567,2551,2538,2524,2510,2498,2485,2475,2464,2455,2444,2437,2427,2420,2412,2404,2399,2391,2385,2378,2374,2370,2369,2371,2383,2401,2425,2458,2496,2539,2584,2635,2683,2735,2783,2828,2866,2898,2925,2942,2957,2964,2972,2974,2977,2976,2977,2975,2973,2970,2961,2956,2947,2938,2926,2915,2901,2888,2873,2859,2845,2830,2818,2801,2789,2773,2759,2742,2727,2709,2692,2677,2659,2642,2623,2609,2591,2576,2561,2548,2535,2522,2511,2498,2489,2479,2470,2460,2453,2443,2435,2426,2418,2412,2405,2403,2401,2410,2421,2444,2471,2506,2544,2585,2631,2678,2727,2772,2816,2851,2906,2934,2944,2956,2963,2968,2970,2969,2972,2970,2970,2966,2963,2956,2948,2939,2927,2916,2903,2892,2876,2864,2848,2834,2818,2803,2788,2772,2757,2739,2723,2704,2687,2669,2652,2633,2616,2598,2582,2566,2548,2535,2519,2507,2492,2480,2469,2461,2456,2456,2463,2475,2498,2521,2553,2586,2626,2665,2705,2746,2785,2821,2851,2879,2897,2912,2920,2929,2932,2935,2937,2936,2935,2930,2925,2917,2909,2898,2887,2876,2863,2848,2832,2817,2800,2785,2766,2752,2734,2718,2700,2681,2663,2645,2626,2606,2587,2566,2549,2528,2512,2494,2477,2462,2447,2434,2419,2408,2394,2385,2376,2371,2370,2378,2393,2413,2442,2474,2512,2551,2595,2639,2684,2727,2766,2799,2825,2847,2862,2875,2882,2888,2892,2894,2893,2893,2890,2887,2882,2873,2866,2855,2845,2831,2819,2806,2792,2779,2765,2752,2737,2725,2710,2697,2682,2669,2652,2636,2620,2603,2587,2570,2554,2538,2524,2507,2494,2479,2466,2455,2443,2434,2424,2418,2413,2417,2425,2441,2462,2491,2525,2561,2601,2641,2684,2724,2764,2798,2829,2855,2874,2888,2897,2904,2908,2912,2911,2911,2907,2904,2896,2888,2878,2867,2856,2844,2831,2816,2803,2790,2777,2764,2753,2740,2727,2716,2702,2690,2675,2661,2646,2632,2617,2603,2588,2575,2561,2548,2537,2523,2513,2503,2494,2486,2482,2483,2489,2503,2522,2548,2576,2613,2649,2689,2729,2771,2811,2847,2880,2907,2930,2947,2962,2971,2979,2984,2991,2995,2996,2997,2994,2990,2982,2974,2961,2950,2934,2919,2903,2885,2869,2851,2835,2817,2801,2784,2769,2752,2737,2721,2703,2686,2666,2648,2628,2610,2590,2573,2554,2537,2519,2503,2489,2474,2463,2452,2447,2448,2458,2471,2492,2517,2547,2582,2618,2658,2698,2741,2778,2814,2845,2872,2893,2911,2929,2941,2953,2962,2971,2975,2981,2982,2982,2978,2971,2962,2950,2937,2920,2905,2886,2870,2850,2831,2812,2793,2776,2758,2741,2722,2707,2688,2671,2653,2634,2615,2596,2577,2558,2540,2522,2506,2487,2470,2453,2437,2421,2408,2395,2381,2369,2355,2346,2334,2324,2314,2306,2298,2290,2285,2279,2282,2290,2307,2328,2359,2396,2438,2485,2535,2588,2642,2697,2746,2794,2832,2869,2898,2921,2939,2955,2968,2979,2988,2994,3000,3002,3003,3000,2995,2988,2977,2964,2949,2932,2913,2894,2874,2855,2833,2814,2794,2775,2757,2738,2720,2701,2684,2667,2649,2629,2611,2592,2574,2555,2535,2518,2499,2483,2465,2451,2434,2420,2407,2394,2382,2370,2360,2349,2341,2332,2325,2316,2309,2301,2294,2288,2281,2276,2271,2267,2261,2257,2252,2249,2245,2241,2240,2240,2246,2257,2276,2302,2338,2380,2430,2482,2538,2596,2655,2714,2768,2820,2861,2898,2924,2945,2959,2970,2979,2985,2992,2993,2995,2993,2993,2989,2984,2977,2968,2959,2946,2935,2919,2905,2891,2876,2861,2848,2833,2818,2804,2789,2775,2759,2744,2729,2714,2697,2682,2664,2648,2633,2617,2603,2588,2574,2561,2548,2536,2525,2514,2504,2495,2486,2478,2468,2461,2453,2446,2442,2442,2446,2457,2476,2500,2531,2564,2604,2644,2688,2731,2773,2812,2848,2878,2899,2918,2928,2938,2943,2947,2948,2948,2947,2944,2940,2933,2926,2917,2909,2896,2885,2872,2858,2844,2831,2817,2803,2789,2775,2762,2747,2735,2719,2704,2688,2673,2656,2637,2622,2603,2588,2570,2555,2539,2525,2512,2499,2487,2474,2464,2454,2447,2438,2431,2423,2416,2409,2402,2397,2394,2396,2402,2417,10,4,3
2726,2717,2707,2699,2692,2689,2688,2691,2697,2708,2721,2736,2751,2766,2776,2782,2784,2781,2775,2764,2752,2738,2724,2712,2702,2695,2692,2689,2687,2687,2685,2682,2678,2673,2670,2667,2670,2673,2680,2692,2705,2721,2738,2757,2772,2786,2793,2794,2793,2788,2780,2771,2761,2750,2741,2732,2725,2719,2713,2710,2708,2705,2702,2701,2700,2700,2703,2704,2707,2708,2707,2707,2707,2706,2701,2698,2690,2684,2677,2669,2662,2654,2648,2641,2635,2631,2631,2633,2639,2649,2661,2675,2690,2705,2719,2730,2739,2745,2750,2751,2750,2749,2745,2743,2739,2736,2732,2727,2723,2717,2712,2706,2700,2696,2693,2693,2695,2698,2702,2708,2714,2718,2721,2723,2724,2722,2717,2711,2703,2694,2683,2673,2662,2655,2648,2644,2644,2649,2657,2669,2682,2697,2711,2724,2735,2745,2752,2755,2754,2751,2748,2743,2736,2729,2725,2718,2711,2704,2697,2689,2681,2673,2666,2660,2656,2652,2649,2648,2651,2651,2653,2653,2654,2653,2653,2648,2643,2638,2630,2619,2610,2600,2591,2582,2574,2570,2572,2577,2587,2600,2616,2634,2652,2672,2690,2707,2718,2725,2726,2725,2721,2717,2709,2701,2692,2683,2673,2663,2654,2648,2640,2635,2627,2624,2621,2622,2624,2628,2633,2639,2644,2649,2652,2654,2654,2651,2648,2642,2637,2632,2626,2620,2615,2610,2608,2609,2613,2618,2629,2640,2655,2669,2687,2703,2718,2730,2742,2749,2753,2751,2749,2745,2740,2734,2731,2728,2723,2718,2713,2708,2702,2696,2690,2685,2679,2674,2667,2666,2664,2665,2665,2666,2665,2665,2662,2660,2656,2652,2645,2640,2632,2628,2622,2620,2615,2613,2610,2608,2609,2610,2613,2618,2628,2638,2649,2663,2679,2694,2709,2723,2737,2747,2756,2760,2766,2766,2768,2767,2766,2764,2760,2753,2747,2739,2730,2719,2711,2702,2697,2690,2686,2684,2683,2681,2682,2681,2679,2677,2672,2667,2661,2655,2647,2643,2636,2633,2628,2625,2622,2620,2617,2615,2612,2611,2609,2614,2619,2630,2640,2655,2670,2687,2704,2722,2737,2751,2760,2766,2769,2769,2767,2766,2763,2757,2754,2748,2744,2739,2736,2730,2727,2723,2722,2719,2719,2718,2718,2718,2718,2716,2716,2711,2707,2701,2695,2687,2682,2675,2669,2662,2658,2654,2649,2646,2642,2638,2634,2631,2626,2624,2622,2621,2621,2628,2634,2646,2660,2676,2692,2711,2727,2744,2756,2766,2770,2773,2770,2767,2761,2756,2750,2745,2738,2732,2727,2722,2717,2714,2712,2708,2707,2705,2706,2708,2711,2713,2716,2716,2717,2715,2715,2710,2707,2700,2696,2689,2686,2681,2677,2672,2671,2667,2664,2660,2657,2654,2654,2655,2659,2666,2676,2688,2701,2714,2726,2738,2747,2754,2755,2754,2747,2741,2731,2722,2712,2703,2695,2689,2683,2680,2677,2676,2672,2672,2668,2668,2666,2667,2665,2666,2668,2669,2672,2674,2677,2679,2683,2686,2688,2691,2693,2693,2693,2691,2689,2684,2680,2672,2669,2666,2667,2668,2676,2685,2696,2706,2721,2734,2748,2756,2762,2763,2762,2756,2750,2742,2734,2724,2715,2706,2699,2692,2684,2678,2671,2665,2659,2656,2653,2651,2650,2651,2652,2654,2653,2654,2653,2651,2646,2641,2635,2627,2619,2612,2606,2601,2598,2596,2597,2600,2603,2609,2614,2619,2624,2629,2635,2641,2649,2657,2666,2676,2686,2696,2709,2720,2732,2739,2749,2753,2757,2758,2761,2761,2762,2761,2759,2755,2752,2747,2742,2737,2733,2728,2726,2724,2724,2724,2725,2727,2728,2729,2726,2723,2717,2711,2703,2695,2687,2681,2672,2667,2661,2659,2653,2653,2648,2646,2642,2638,2635,2632,2632,2637,2643,2655,2667,2684,2702,2720,2737,2753,2766,2774,2778,2778,2775,2769,2762,2754,2748,2743,2741,2738,2739,2737,2736,2734,2734,2730,2727,2722,2717,2710,2706,2700,2696,2691,2689,2684,2681,2675,2670,2665,2660,2653,2646,2642,2638,2635,2632,2631,2630,2631,2630,2632,2632,2634,2633,2635,2636,2642,2648,2659,2669,2683,2696,2711,2726,2740,2751,2760,2766,2769,2770,2769,2766,2764,2761,2759,2758,2755,2751,2747,2743,2737,2731,2723,2717,2709,2704,2698,2694,2691,2691,2688,2688,2685,2685,2680,2678,2672,2667,2659,2653,2645,2639,2631,2625,2619,2612,2607,2601,2599,2597,2595,2594,2596,2600,2606,2616,2630,2645,2663,2682,2703,2722,2742,2758,2774,2785,2794,2796,2799,2798,2796,2791,2788,2783,2776,2769,2761,2753,2747,2738,2731,2722,2715,2710,2706,2703,2702,2702,2700,2701,2700,2699,2698,2697,2692,2691,2687,2685,2681,2678,2674,2670,2665,2660,2655,2651,2644,2640,2633,2627,2621,2618,2615,2618,2622,2630,2641,2655,2670,2686,2702,2715,2728,2735,2739,2737,2736,2731,2725,2718,2713,2707,2704,2701,2700,2699,2700,2698,2698,2697,2697,2695,2695,2694,2695,2694,2694,2694,2694,2694,2693,2693,2694,2695,2697,2698,2700,2701,2701,2702,2699,2697,2691,2687,2681,2678,2676,2677,2680,2687,2696,2707,2719,2733,2744,2756,2762,2766,2768,2767,2765,2762,2759,2756,2754,2751,2748,2747,2746,2743,2742,2740,2741,2739,2739,2737,2738,2737,2737,2734,2733,2728,2724,2716,2709,2701,2696,2688,2684,2679,2674,2669,2665,2660,2655,2648,2643,2639,2638,2639,2644,2653,2663,2675,2688,2701,2712,2723,2728,2733,2734,2732,2728,2725,2720,2717,2714,2712,2709,2710,2708,2708,2707,2705,2701,2699,2694,2691,2685,2681,2675,2669,2662,2655,2648,2643,2641,2637,2637,2638,2640,2641,2642,2640,2640,2635,2629,2618,2610,2601,2598,2595,2602,2610,2626,2641,2662,2680,2699,2713,2721,2724,2724,2716,2707,2694,2679,2664,2650,2639,2629,2621,2613,2609,2605,2603,2601,2599,2599,2600,2599,2601,2600,2601,2600,2599,2594,2595,2592,2591,2588,2589,2589,2593,2595,2598,2601,2603,2604,2606,2607,2606,2608,2609,2614,2622,2635,2651,2670,2692,2716,2739,2764,2786,2809,2827,2842,2855,2866,2874,2884,2889,2896,2898,2901,2901,2899,2896,2889,2879,2868,2856,2844,2833,2823,2813,2804,2796,2791,2788,2783,2781,2778,2777,2777,2778,2778,2782,2784,2787,2789,2793,2796,2801,2802,2803,2802,2804,2801,2800,2802,2805,2809,2817,2822,2829,2836,2844,2851,2856,2861,2864,2865,2863,2861,2858,2855,2850,2845,2836,2826,2810,2794,2774,2753,2729,2709,2685,2668,2652,2641,2632,2631,2630,2633,2635,2641,2642,2644,2643,2641,2639,2637,2632,2629,2627,2623,2620,2619,2618,2616,2615,2611,2608,2603,2598,2591,2586,2582,2583,2585,2592,2601,2613,2627,2643,2659,2675,2690,2701,2707,2710,2711,2711,2706,2702,2696,2689,2684,2676,2668,2660,2653,2641,2631,2620,2611,2604,2599,2593,2593,2593,2594,2594,2597,2598,2600,2597,2596,2592,2589,2585,2582,2577,2575,2570,2565,2558,2552,2546,2540,2535,2531,2531,2534,2541,2550,2561,2574,2590,2604,2618,2629,2640,2646,2652,2655,2658,2657,2658,2656,2658,2654,2653,2650,2648,2643,2641,2636,2632,2626,2622,2618,2615,2612,2608,2603,2598,2593,2587,2582,2577,2571,2566,2562,2557,2554,2549,2547,2544,2543,2542,2544,2546,2552,2561,2575,2590,2608,2625,2644,2663,2681,2696,2708,2716,2722,2726,2728,2729,2731,2732,2731,2730,2728,2727,2722,2719,2713,2710,2705,2701,2699,2702,2704,2709,2715,2724,2734,2743,2750,2760,2766,2774,2776,2780,2780,2780,2777,2773,2767,2758,2747,2736,2723,2713,2706,2700,2699,2701,2708,2715,2725,2735,2745,2750,2755,2752,2748,2735,2724,2705,2688,2666,2646,2624,2606,2588,2574,2560,2551,2542,2537,2535,2533,2533,2534,2536,2538,2539,2538,2537,2533,2529,2521,2515,2508,2505,2500,2496,2493,2495,2494,2498,2499,2505,2509,2513,2515,2520,2524,2530,2536,2549,2561,2578,2594,2613,2632,2653,2672,2690,2704,2715,2724,2730,2733,2733,2735,2734,2735,2731,2728,2725,2723,2717,2715,2710,2709,2703,2703,2701,2703,2703,2707,2711,2715,2718,2721,2722,2724,2722,2722,2721,2722,2721,2720,2719,2719,2721,2723,2728,2730,2736,2740,2746,2748,2755,2760,2768,2775,2788,2802,2818,2834,2853,2871,2890,2906,2922,2932,2942,2946,2948,2946,2941,2933,2925,2915,2904,2893,2883,2874,2862,2851,2842,2834,2826,2822,2819,2817,2815,2815,2814,2813,2810,2807,2800,2794,2782,2772,2759,2747,2731,2718,2705,2694,2682,2673,2666,2659,2655,2651,2647,2646,2644,2642,2644,2647,2652,2661,2673,2686,2700,2718,2735,2751,2769,2780,2792,2797,2802,2802,2803,2800,2796,2793,2789,2782,2778,2773,2768,2761,2754,2747,2741,2737,2733,2728,2726,2724,2720,2718,2716,2711,2706,2701,2692,2684,2675,2666,2656,2647,2636,2630,2621,2615,2608,2602,2597,2593,2587,2583,2579,2577,2574,2575,2578,2586,2594,2609,2625,2642,2660,2679,2696,2713,2726,2733,2740,2741,2739,2735,2733,2731,2730,2727,2726,2725,2724,2721,2719,2715,2711,2706,2701,2697,2693,2689,2687,2685,2683,2680,2678,2672,2666,2658,2649,2639,2628,2620,2612,2604,2598,2591,2587,2584,2579,2575,2572,2568,2562,2556,2551,2545,2542,2542,2547,2557,2570,2588,2609,2632,2656,2681,2705,2726,2742,2753,2761,2766,2769,2770,2771,2772,2771,2771,2770,2769,2767,2762,2755,2747,2738,2728,2718,2709,2699,2689,2678,2667,2659,2649,2639,2630,2621,2613,2605,2601,2600,2601,2603,2605,2608,2612,2614,2616,2616,2615,2612,2608,2604,2599,2596,2597,2601,2609,2622,2638,2658,2680,2703,2726,2747,2764,2776,2784,2787,2787,2784,2777,2769,2764,2759,2756,2753,2753,2752,2750,2745,2741,2735,2727,2719,2712,2706,2701,2698,2698,2699,2704,2708,2716,2723,2728,2732,2737,2738,2737,2735,2730,2723,2714,2702,2691,2679,2667,2659,2655,2656,2661,2672,2687,2706,2727,2748,2769,2787,2802,2812,2817,2818,2815,2808,2801,2792,2783,2775,2765,2759,2751,2744,2735,2727,2719,2710,2701,2693,2686,2680,2675,2672,2671,2671,2672,2674,2677,2681,2684,2686,2687,2688,2685,2682,2677,2673,2670,2666,2666,2668,2676,2687,2702,2719,2737,2756,2776,2793,2809,2822,2829,2833,2833,2830,2827,2825,2821,2818,2812,2807,2802,2797,2792,2785,2779,2773,2765,2756,2749,2744,2736,2729,2721,2715,2706,2698,2688,2681,2673,2665,2655,2649,2642,2637,2631,2627,2622,2620,2618,2621,2627,2636,2648,2662,2678,2696,2715,2732,2749,2764,2776,2785,2792,2797,2800,2801,2803,2802,2803,2800,2798,2793,2788,2782,2776,2769,2763,2756,2750,2741,2736,2731,2725,2720,2713,2705,2696,2688,2680,2672,2665,2658,2649,2642,2636,2627,2621,2616,2611,2612,2615,2623,2633,2649,2666,2687,2707,2729,2746,2762,2773,2782,2786,2788,2785,2783,2779,2777,2774,2771,2768,2765,2762,2757,2754,2751,2747,2742,2739,2737,2735,2731,2731,2729,2727,2721,2716,2709,2700,2689,2678,2667,2656,2643,2631,2618,2609,2603,2603,2607,2617,2631,2648,2670,2695,2720,2747,2774,2797,2818,2835,2848,2858,2867,2873,2881,2883,2885,2881,2875,2863,2851,2834,2815,2793,2772,2751,2734,2720,2712,2705,2704,2704,2708,2710,2715,2716,2716,2713,2709,2703,2695,2686,2676,2665,2654,2645,2639,2638,2640,2647,2656,2670,2685,2704,2722,2741,2757,2770,2777,2781,2779,2775,2768,2760,2749,2738,2726,2717,2706,2698,2691,2685,2679,2676,2672,2669,2667,2665,2664,2660,2658,2653,2649,2641,2634,2623,2614,2602,2593,2582,2571,2560,2552,2542,2536,2531,2533,2536,2547,2559,2575,2594,2614,2634,2653,2671,2687,2700,2708,2714,2719,2723,2724,2727,2729,2732,2732,2733,2731,2730,2724,2718,2710,2703,2694,2688,2681,2677,2671,2671,2668,2670,2669,2669,2667,2665,2660,2659,2653,2648,2642,2635,2628,2619,2612,2604,2598,2590,2583,2579,2581,2585,2595,2606,2623,2639,2659,2677,2698,2714,2728,2738,2746,2748,2751,2750,2751,2749,2749,2747,2746,2745,2744,2742,2741,2739,2736,2731,2727,2723,2718,2713,2706,2699,2689,2682,2670,2660,2648,2637,2624,2615,2603,2594,2585,2577,2567,2561,2551,2543,2534,2527,2520,2518,2516,2520,2528,2541,2556,2577,2599,2622,2643,2664,2683,2697,2709,2715,2719,2718,2718,2714,2712,2709,2707,2702,2701,2697,2695,2690,2689,2685,2682,2676,2674,2670,2667,2661,2656,2650,2644,2636,2627,2618,2609,2598,2587,2577,2567,2559,2553,2550,2549,2553,2556,2559,2562,2565,2567,2571,2573,2577,2581,2587,2593,2604,2616,2632,2648,2667,2682,2696,2704,2711,2715,2717,2717,2717,2716,2712,2709,2704,2701,2697,2694,2687,2682,2671,2663,2654,2646,2638,2634,2624,2615,2604,2596,2583,2574,2561,2548,2535,2526,2517,2516,2514,2516,2516,2520,2522,2525,2527,2530,2534,2537,2540,2545,2553,2560,2570,2579,2590,2598,2609,2616,2621,2627,2634,2636,2640,2641,2645,2644,2645,2642,2642,2641,2638,2635,2636,2634,2636,2638,2642,2646,2651,2656,2662,2665,2668,2671,2673,2677,2679,2682,2683,2686,2684,2682,2679,2678,2677,2678,2680,2688,2698,2713,2729,2748,2768,2788,2805,2821,2832,2841,2845,2845,2844,2841,2838,2833,2829,2823,2817,2808,2801,2790,2781,2769,2760,2748,2740,2731,2725,2718,2716,2710,2708,2702,2699,2692,2689,2682,2678,2672,2669,2663,2659,2653,2650,2646,2643,2638,2639,2643,2649,2659,2672,2691,2710,2729,2748,2768,2784,2798,2806,2813,2816,2819,2816,2816,2813,2811,2808,2808,2804,2802,2798,2794,2789,2787,2784,2785,2783,2783,2782,2782,2781,2777,2772,2764,2754,2740,2727,2711,2698,2684,2672,2660,2652,2644,2641,2634,2633,2629,2632,2633,2642,2652,2669,2685,2706,2724,2746,2765,2784,2798,2809,2813,2813,2810,2805,2797,2789,2779,2769,2761,2751,2744,2739,2734,2726,2723,2718,2717,2715,2716,2714,2715,2711,2709,2703,2697,2688,2679,2666,2658,2646,2636,2626,2620,2613,2608,2605,2601,2599,2595,2590,2586,2584,2585,2588,2595,2607,2620,2638,2657,2680,2702,2723,2740,2758,2770,2778,2781,2785,2783,2781,2775,2771,2766,2760,2753,2747,2742,2737,2729,2723,2717,2713,2710,2709,2710,2712,2712,2710,2708,2703,2699,2691,2683,2671,2661,2648,2638,2626,2617,2609,2604,2597,2594,2588,2584,2577,2571,2563,2557,2551,2552,2555,2564,2575,2591,2609,2631,2654,2677,2700,2720,2734,2743,2750,2752,2753,2751,2750,2748,2749,2747,2748,2747,2747,2744,2744,2741,2740,2736,2736,2730,2728,2724,2722,2717,2714,2710,2704,2697,2689,2680,2670,2661,2652,2644,2635,2629,2623,2619,2613,2610,2607,2604,2599,2595,2590,2589,2587,2589,2593,2606,2617,2635,2654,2677,2696,2717,2735,2752,2764,2772,2776,2779,2780,2779,2778,2777,2778,2775,2772,2769,2764,2757,2751,2742,2736,2729,2725,2721,2719,2716,2715,2713,2712,2708,2704,2696,2690,2680,2671,2662,2654,2645,2637,2629,2624,2617,2611,2606,2600,2597,2592,2588,2584,2582,2580,2580,2583,2591,2602,2618,2635,2658,2680,2705,2727,2753,2772,2791,2803,2814,2820,2823,2823,2824,2822,2819,2814,2809,2802,2796,2788,2780,2771,2763,2755,2745,2739,2732,2728,2723,2720,2714,2711,2706,2702,2695,2689,2680,2672,2663,2655,2643,2635,2624,2613,2600,2590,2578,2569,2557,2548,2540,2533,2528,2526,2530,2541,2556,2575,2598,2623,2652,2679,2708,2736,2760,2779,2796,2806,2815,2819,2822,2822,2825,2822,2821,2818,2816,2812,2811,2808,2805,2803,2802,2800,2801,2800,2799,2798,2794,2789,2783,2777,2768,2757,2745,2734,2722,2712,2702,2694,2684,2677,2670,2665,2657,2651,2643,2639,2632,2630,2630,2637,2645,2657,2672,2690,2708,2726,2744,2758,2769,2777,2781,2782,2783,2782,2781,2782,2783,2783,2783,2781,2779,2774,2768,2758,2750,2739,2732,2723,2717,2711,2709,2705,2702,2699,2697,2692,2690,2684,2679,2674,2670,2664,2658,2652,2645,2637,2630,2623,2620,2621,2626,2635,2649,2668,2688,2712,2735,2758,2777,2792,2801,2808,2809,2807,2803,2797,2789,2782,2773,2765,2758,2751,2743,2737,2733,2728,2724,2722,2720,2719,2718,2716,2716,2714,2710,2704,2698,2690,2681,2670,2661,2650,2638,2624,2613,2601,2595,2590,2591,2597,2608,2622,2640,2659,2679,2698,2715,2728,2742,2750,2755,2758,2761,2762,2763,2763,2763,2764,2761,2757,2753,2749,2744,2738,2731,2726,2720,2715,2709,2707,2703,2698,2692,2687,2679,2674,2667,2659,2652,2645,2637,2630,2623,2618,2614,2614,2619,2627,2640,2656,2676,2698,2720,2742,2763,2783,2797,2807,2816,2821,2821,2819,2818,2816,2813,2810,2804,2799,2793,2787,2779,2773,2766,2759,2753,2747,2741,2738,2734,2728,2724,2718,2713,2706,2697,2688,2679,2670,2661,2652,2642,2634,2626,2620,2618,2621,2626,2637,2651,2668,2689,2710,2733,2758,2779,2797,2811,2822,2830,2834,2838,2839,2838,2836,2831,2825,2819,2810,2800,2790,2779,2768,2756,2746,2738,2731,2724,2718,2712,2706,2699,2689,2680,2669,2657,2643,2629,2616,2603,2590,2578,2566,2556,2550,2546,2546,2552,2561,2576,2593,2611,2632,2656,2677,2697,2716,2732,2745,2758,2767,2776,2784,2790,2794,2795,2794,2790,2782,2769,2753,2739,2723,2707,2693,2681,2673,2668,2663,2661,2660,2659,2658,2656,2654,2650,2644,2639,2633,2625,2617,2607,2596,2586,2575,2568,2565,2565,2571,2580,2594,2610,2632,0,2,0
