1,2,3,4,5,6,7,8,9,10,11,12,13,14,15,16,17,18,19,20,21,22,23,24,25,26,27,28,29,30,31,32,33,34,35,36,37,38,39,40,41,42,43,44,45,46,47,48,49,50,51,52,53,54,55,56,57,58,59,60,61,62,63,64,65,66,67,68,69,70,71,72,73,74,75,76,77,78,79,80,81,82,83,84,85,86,87,88,89,90,91,92,93,94,95,96,97,98,99,100,101,102,103,104,105,106,107,108,109,110,111,112,113,114,115,116,117,118,119,120,121,122,123,124,125,126,127,128,129,130,131,132,133,134,135,136,137,138,139,140,141,142,143,144,145,146,147,148,149,150,151,152,153,154,155,156,157,158,159,160,161,162,163,164,165,166,167,168,169,170,171,172,173,174,175,176,177,178,179,180,181,182,183,184,185,186,187,188,189,190,191,192,193,194,195,196,197,198,199,200,201,202,203,204,205,206,207,208,209,210,211,212,213,214,215,216,217,218,219,220,221,222,223,224,225,226,227,228,229,230,231,232,233,234,235,236,237,238,239,240,241,242,243,244,245,246,247,248,249,250,251,252,253,254,255,256,257,258,259,260,261,262,263,264,265,266,267,268,269,270,271,272,273,274,275,276,277,278,279,280,281,282,283,284,285,286,287,288,289,290,291,292,293,294,295,296,297,298,299,300,301,302,303,304,305,306,307,308,309,310,311,312,313,314,315,316,317,318,319,320,321,322,323,324,325,326,327,328,329,330,331,332,333,334,335,336,337,338,339,340,341,342,343,344,345,346,347,348,349,350,351,352,353,354,355,356,357,358,359,360,361,362,363,364,365,366,367,368,369,370,371,372,373,374,375,376,377,378,379,380,381,382,383,384,385,386,387,388,389,390,391,392,393,394,395,396,397,398,399,400,401,402,403,404,405,406,407,408,409,410,411,412,413,414,415,416,417,418,419,420,421,422,423,424,425,426,427,428,429,430,431,432,433,434,435,436,437,438,439,440,441,442,443,444,445,446,447,448,449,450,451,452,453,454,455,456,457,458,459,460,461,462,463,464,465,466,467,468,469,470,471,472,473,474,475,476,477,478,479,480,481,482,483,484,485,486,487,488,489,490,491,492,493,494,495,496,497,498,499,500,501,502,503,504,505,506,507,508,509,510,511,512,513,514,515,516,517,518,519,520,521,522,523,524,525,526,527,528,529,530,531,532,533,534,535,536,537,538,539,540,541,542,543,544,545,546,547,548,549,550,551,552,553,554,555,556,557,558,559,560,561,562,563,564,565,566,567,568,569,570,571,572,573,574,575,576,577,578,579,580,581,582,583,584,585,586,587,588,589,590,591,592,593,594,595,596,597,598,599,600,601,602,603,604,605,606,607,608,609,610,611,612,613,614,615,616,617,618,619,620,621,622,623,624,625,626,627,628,629,630,631,632,633,634,635,636,637,638,639,640,641,642,643,644,645,646,647,648,649,650,651,652,653,654,655,656,657,658,659,660,661,662,663,664,665,666,667,668,669,670,671,672,673,674,675,676,677,678,679,680,681,682,683,684,685,686,687,688,689,690,691,692,693,694,695,696,697,698,699,700,701,702,703,704,705,706,707,708,709,710,711,712,713,714,715,716,717,718,719,720,721,722,723,724,725,726,727,728,729,730,731,732,733,734,735,736,737,738,739,740,741,742,743,744,745,746,747,748,749,750,751,752,753,754,755,756,757,758,759,760,761,762,763,764,765,766,767,768,769,770,771,772,773,774,775,776,777,778,779,780,781,782,783,784,785,786,787,788,789,790,791,792,793,794,795,796,797,798,799,800,801,802,803,804,805,806,807,808,809,810,811,812,813,814,815,816,817,818,819,820,821,822,823,824,825,826,827,828,829,830,831,832,833,834,835,836,837,838,839,840,841,842,843,844,845,846,847,848,849,850,851,852,853,854,855,856,857,858,859,860,861,862,863,864,865,866,867,868,869,870,871,872,873,874,875,876,877,878,879,880,881,882,883,884,885,886,887,888,889,890,891,892,893,894,895,896,897,898,899,900,901,902,903,904,905,906,907,908,909,910,911,912,913,914,915,916,917,918,919,920,921,922,923,924,925,926,927,928,929,930,931,932,933,934,935,936,937,938,939,940,941,942,943,944,945,946,947,948,949,950,951,952,953,954,955,956,957,958,959,960,961,962,963,964,965,966,967,968,969,970,971,972,973,974,975,976,977,978,979,980,981,982,983,984,985,986,987,988,989,990,991,992,993,994,995,996,997,998,999,1000,1001,1002,1003,1004,1005,1006,1007,1008,1009,1010,1011,1012,1013,1014,1015,1016,1017,1018,1019,1020,1021,1022,1023,1024,1025,1026,1027,1028,1029,1030,1031,1032,1033,1034,1035,1036,1037,1038,1039,1040,1041,1042,1043,1044,1045,1046,1047,1048,1049,1050,1051,1052,1053,1054,1055,1056,1057,1058,1059,1060,1061,1062,1063,1064,1065,1066,1067,1068,1069,1070,1071,1072,1073,1074,1075,1076,1077,1078,1079,1080,1081,1082,1083,1084,1085,1086,1087,1088,1089,1090,1091,1092,1093,1094,1095,1096,1097,1098,1099,1100,1101,1102,1103,1104,1105,1106,1107,1108,1109,1110,1111,1112,1113,1114,1115,1116,1117,1118,1119,1120,1121,1122,1123,1124,1125,1126,1127,1128,1129,1130,1131,1132,1133,1134,1135,1136,1137,1138,1139,1140,1141,1142,1143,1144,1145,1146,1147,1148,1149,1150,1151,1152,1153,1154,1155,1156,1157,1158,1159,1160,1161,1162,1163,1164,1165,1166,1167,1168,1169,1170,1171,1172,1173,1174,1175,1176,1177,1178,1179,1180,1181,1182,1183,1184,1185,1186,1187,1188,1189,1190,1191,1192,1193,1194,1195,1196,1197,1198,1199,1200,1201,1202,1203,1204,1205,1206,1207,1208,1209,1210,1211,1212,1213,1214,1215,1216,1217,1218,1219,1220,1221,1222,1223,1224,1225,1226,1227,1228,1229,1230,1231,1232,1233,1234,1235,1236,1237,1238,1239,1240,1241,1242,1243,1244,1245,1246,1247,1248,1249,1250,1251,1252,1253,1254,1255,1256,1257,1258,1259,1260,1261,1262,1263,1264,1265,1266,1267,1268,1269,1270,1271,1272,1273,1274,1275,1276,1277,1278,1279,1280,1281,1282,1283,1284,1285,1286,1287,1288,1289,1290,1291,1292,1293,1294,1295,1296,1297,1298,1299,1300,1301,1302,1303,1304,1305,1306,1307,1308,1309,1310,1311,1312,1313,1314,1315,1316,1317,1318,1319,1320,1321,1322,1323,1324,1325,1326,1327,1328,1329,1330,1331,1332,1333,1334,1335,1336,1337,1338,1339,1340,1341,1342,1343,1344,1345,1346,1347,1348,1349,1350,1351,1352,1353,1354,1355,1356,1357,1358,1359,1360,1361,1362,1363,1364,1365,1366,1367,1368,1369,1370,1371,1372,1373,1374,1375,1376,1377,1378,1379,1380,1381,1382,1383,1384,1385,1386,1387,1388,1389,1390,1391,1392,1393,1394,1395,1396,1397,1398,1399,1400,1401,1402,1403,1404,1405,1406,1407,1408,1409,1410,1411,1412,1413,1414,1415,1416,1417,1418,1419,1420,1421,1422,1423,1424,1425,1426,1427,1428,1429,1430,1431,1432,1433,1434,1435,1436,1437,1438,1439,1440,1441,1442,1443,1444,1445,1446,1447,1448,1449,1450,1451,1452,1453,1454,1455,1456,1457,1458,1459,1460,1461,1462,1463,1464,1465,1466,1467,1468,1469,1470,1471,1472,1473,1474,1475,1476,1477,1478,1479,1480,1481,1482,1483,1484,1485,1486,1487,1488,1489,1490,1491,1492,1493,1494,1495,1496,1497,1498,1499,1500,1501,1502,1503,1504,1505,1506,1507,1508,1509,1510,1511,1512,1513,1514,1515,1516,1517,1518,1519,1520,1521,1522,1523,1524,1525,1526,1527,1528,1529,1530,1531,1532,1533,1534,1535,1536,1537,1538,1539,1540,1541,1542,1543,1544,1545,1546,1547,1548,1549,1550,1551,1552,1553,1554,1555,1556,1557,1558,1559,1560,1561,1562,1563,1564,1565,1566,1567,1568,1569,1570,1571,1572,1573,1574,1575,1576,1577,1578,1579,1580,1581,1582,1583,1584,1585,1586,1587,1588,1589,1590,1591,1592,1593,1594,1595,1596,1597,1598,1599,1600,1601,1602,1603,1604,1605,1606,1607,1608,1609,1610,1611,1612,1613,1614,1615,1616,1617,1618,1619,1620,1621,1622,1623,1624,1625,1626,1627,1628,1629,1630,1631,1632,1633,1634,1635,1636,1637,1638,1639,1640,1641,1642,1643,1644,1645,1646,1647,1648,1649,1650,1651,1652,1653,1654,1655,1656,1657,1658,1659,1660,1661,1662,1663,1664,1665,1666,1667,1668,1669,1670,1671,1672,1673,1674,1675,1676,1677,1678,1679,1680,1681,1682,1683,1684,1685,1686,1687,1688,1689,1690,1691,1692,1693,1694,1695,1696,1697,1698,1699,1700,1701,1702,1703,1704,1705,1706,1707,1708,1709,1710,1711,1712,1713,1714,1715,1716,1717,1718,1719,1720,1721,1722,1723,1724,1725,1726,1727,1728,1729,1730,1731,1732,1733,1734,1735,1736,1737,1738,1739,1740,1741,1742,1743,1744,1745,1746,1747,1748,1749,1750,1751,1752,1753,1754,1755,1756,1757,1758,1759,1760,1761,1762,1763,1764,1765,1766,1767,1768,1769,1770,1771,1772,1773,1774,1775,1776,1777,1778,1779,1780,1781,1782,1783,1784,1785,1786,1787,1788,1789,1790,1791,1792,1793,1794,1795,1796,1797,1798,1799,1800,1801,1802,1803,1804,1805,1806,1807,1808,1809,1810,1811,1812,1813,1814,1815,1816,1817,1818,1819,1820,1821,1822,1823,1824,1825,1826,1827,1828,1829,1830,1831,1832,1833,1834,1835,1836,1837,1838,1839,1840,1841,1842,1843,1844,1845,1846,1847,1848,1849,1850,1851,1852,1853,1854,1855,1856,1857,1858,1859,1860,1861,1862,1863,1864,1865,1866,1867,1868,1869,1870,1871,1872,1873,1874,1875,1876,1877,1878,1879,1880,1881,1882,1883,1884,1885,1886,1887,1888,1889,1890,1891,1892,1893,1894,1895,1896,1897,1898,1899,1900,1901,1902,1903,1904,1905,1906,1907,1908,1909,1910,1911,1912,1913,1914,1915,1916,1917,1918,1919,1920,1921,1922,1923,1924,1925,1926,1927,1928,1929,1930,1931,1932,1933,1934,1935,1936,1937,1938,1939,1940,1941,1942,1943,1944,1945,1946,1947,1948,1949,1950,1951,1952,1953,1954,1955,1956,1957,1958,1959,1960,1961,1962,1963,1964,1965,1966,1967,1968,1969,1970,1971,1972,1973,1974,1975,1976,1977,1978,1979,1980,1981,1982,1983,1984,1985,1986,1987,1988,1989,1990,1991,1992,1993,1994,1995,1996,1997,1998,1999,2000,2001,2002,2003,2004,2005,2006,2007,2008,2009,2010,2011,2012,2013,2014,2015,2016,2017,2018,2019,2020,2021,2022,2023,2024,2025,2026,2027,2028,2029,2030,2031,2032,2033,2034,2035,2036,2037,2038,2039,2040,2041,2042,2043,2044,2045,2046,2047,2048,2049,2050,2051,2052,2053,2054,2055,2056,2057,2058,2059,2060,2061,2062,2063,2064,2065,2066,2067,2068,2069,2070,2071,2072,2073,2074,2075,2076,2077,2078,2079,2080,2081,2082,2083,2084,2085,2086,2087,2088,2089,2090,2091,2092,2093,2094,2095,2096,2097,2098,2099,2100,2101,2102,2103,2104,2105,2106,2107,2108,2109,2110,2111,2112,2113,2114,2115,2116,2117,2118,2119,2120,2121,2122,2123,2124,2125,2126,2127,2128,2129,2130,2131,2132,2133,2134,2135,2136,2137,2138,2139,2140,2141,2142,2143,2144,2145,2146,2147,2148,2149,2150,2151,2152,2153,2154,2155,2156,2157,2158,2159,2160,2161,2162,2163,2164,2165,2166,2167,2168,2169,2170,2171,2172,2173,2174,2175,2176,2177,2178,2179,2180,2181,2182,2183,2184,2185,2186,2187,2188,2189,2190,2191,2192,2193,2194,2195,2196,2197,2198,2199,2200,2201,2202,2203,2204,2205,2206,2207,2208,2209,2210,2211,2212,2213,2214,2215,2216,2217,2218,2219,2220,2221,2222,2223,2224,2225,2226,2227,2228,2229,2230,2231,2232,2233,2234,2235,2236,2237,2238,2239,2240,2241,2242,2243,2244,2245,2246,2247,2248,2249,2250,2251,2252,2253,2254,2255,2256,2257,2258,2259,2260,2261,2262,2263,2264,2265,2266,2267,2268,2269,2270,2271,2272,2273,2274,2275,2276,2277,2278,2279,2280,2281,2282,2283,2284,2285,2286,2287,2288,2289,2290,2291,2292,2293,2294,2295,2296,2297,2298,2299,2300,2301,2302,2303,2304,2305,2306,2307,2308,2309,2310,2311,2312,2313,2314,2315,2316,2317,2318,2319,2320,2321,2322,2323,2324,2325,2326,2327,2328,2329,2330,2331,2332,2333,2334,2335,2336,2337,2338,2339,2340,2341,2342,2343,2344,2345,2346,2347,2348,2349,2350,2351,2352,2353,2354,2355,2356,2357,2358,2359,2360,2361,2362,2363,2364,2365,2366,2367,2368,2369,2370,2371,2372,2373,2374,2375,2376,2377,2378,2379,2380,2381,2382,2383,2384,2385,2386,2387,2388,2389,2390,2391,2392,2393,2394,2395,2396,2397,2398,2399,2400,2401,2402,2403,2404,2405,2406,2407,2408,2409,2410,2411,2412,2413,2414,2415,2416,2417,2418,2419,2420,2421,2422,2423,2424,2425,2426,2427,2428,2429,2430,2431,2432,2433,2434,2435,2436,2437,2438,2439,2440,2441,2442,2443,2444,2445,2446,2447,2448,2449,2450,2451,2452,2453,2454,2455,2456,2457,2458,2459,2460,2461,2462,2463,2464,2465,2466,2467,2468,2469,2470,2471,2472,2473,2474,2475,2476,2477,2478,2479,2480,2481,2482,2483,2484,2485,2486,2487,2488,2489,2490,2491,2492,2493,2494,2495,2496,2497,2498,2499,2500,2501,2502,2503,2504,2505,2506,2507,2508,2509,2510,2511,2512,2513,2514,2515,2516,2517,2518,2519,2520,2521,2522,2523,2524,2525,2526,2527,2528,2529,2530,2531,2532,2533,2534,2535,2536,2537,2538,2539,2540,2541,2542,2543,2544,2545,2546,2547,2548,2549,2550,2551,2552,2553,2554,2555,2556,2557,2558,2559,2560,2561,2562,2563,2564,2565,2566,2567,2568,2569,2570,2571,2572,2573,2574,2575,2576,2577,2578,2579,2580,2581,2582,2583,2584,2585,2586,2587,2588,2589,2590,2591,2592,2593,2594,2595,2596,2597,2598,2599,2600,2601,2602,2603,2604,2605,2606,2607,2608,2609,2610,2611,2612,2613,2614,2615,2616,2617,2618,2619,2620,2621,2622,2623,2624,2625,2626,2627,2628,2629,2630,2631,2632,2633,2634,2635,2636,2637,2638,2639,2640,2641,2642,2643,2644,2645,2646,2647,2648,2649,2650,2651,2652,2653,2654,2655,2656,2657,2658,2659,2660,2661,2662,2663,2664,2665,2666,2667,2668,2669,2670,2671,2672,2673,2674,2675,2676,2677,2678,2679,2680,2681,2682,2683,2684,2685,2686,2687,2688,2689,2690,2691,2692,2693,2694,2695,2696,2697,2698,2699,2700,2701,2702,2703,2704,2705,2706,2707,2708,2709,2710,2711,2712,2713,2714,2715,2716,2717,2718,2719,2720,2721,2722,2723,2724,2725,2726,2727,2728,2729,2730,2731,2732,2733,2734,2735,2736,2737,2738,2739,2740,2741,2742,2743,2744,2745,2746,2747,2748,2749,2750,2751,2752,2753,2754,2755,2756,2757,2758,2759,2760,2761,2762,2763,2764,2765,2766,2767,2768,2769,2770,2771,2772,2773,2774,2775,2776,2777,2778,2779,2780,2781,2782,2783,2784,2785,2786,2787,2788,2789,2790,2791,2792,2793,2794,2795,2796,2797,2798,2799,2800,2801,2802,2803,2804,2805,2806,2807,2808,2809,2810,2811,2812,2813,2814,2815,2816,2817,2818,2819,2820,2821,2822,2823,2824,2825,2826,2827,2828,2829,2830,2831,2832,2833,2834,2835,2836,2837,2838,2839,2840,2841,2842,2843,2844,2845,2846,2847,2848,2849,2850,2851,2852,2853,2854,2855,2856,2857,2858,2859,2860,2861,2862,2863,2864,2865,2866,2867,2868,2869,2870,2871,2872,2873,2874,2875,2876,2877,2878,2879,2880,2881,2882,2883,2884,2885,2886,2887,2888,2889,2890,2891,2892,2893,2894,2895,2896,2897,2898,2899,2900,2901,2902,2903,2904,2905,2906,2907,2908,2909,2910,2911,2912,2913,2914,2915,2916,2917,2918,2919,2920,2921,2922,2923,2924,2925,2926,2927,2928,2929,2930,2931,2932,2933,2934,2935,2936,2937,2938,2939,2940,2941,2942,2943,2944,2945,2946,2947,2948,2949,2950,2951,2952,2953,2954,2955,2956,2957,2958,2959,2960,2961,2962,2963,2964,2965,2966,2967,2968,2969,2970,2971,2972,2973,2974,2975,2976,2977,2978,2979,2980,2981,2982,2983,2984,2985,2986,2987,2988,2989,2990,2991,2992,2993,2994,2995,2996,2997,2998,2999,3000,stress_score,anxiety_score,depression_score
2767,2780,2797,2811,2827,2843,2856,2869,2878,2885,2889,2893,2893,2891,2888,2882,2875,2867,2858,2850,2842,2833,2823,2814,2805,2795,2785,2774,2764,2754,2744,2735,2725,2717,2709,2699,2690,2681,2670,2660,2647,2634,2620,2607,2592,2579,2567,2552,2540,2531,2521,2516,2511,2509,2508,2508,2510,2514,2518,2522,2526,2530,2532,2535,2535,2535,2536,2534,2532,2533,2535,2539,2547,2558,2570,2585,2601,2617,2635,2654,2670,2684,2697,2708,2716,2722,2726,2730,2734,2736,2737,2739,2741,2741,2740,2740,2742,2744,2747,2750,2753,2757,2763,2770,2780,2790,2800,2810,2819,2827,2837,2846,2854,2860,2865,2867,2868,2868,2867,2865,2861,2857,2851,2844,2835,2826,2818,2806,2793,2780,2766,2750,2733,2718,2703,2688,2675,2664,2658,2657,2660,2665,2676,2690,2704,2719,2735,2750,2762,2774,2780,2784,2789,2790,2790,2789,2790,2787,2787,2787,2785,2784,2781,2777,2772,2766,2759,2750,2743,2734,2724,2715,2707,2699,2692,2685,2679,2674,2670,2665,2662,2659,2657,2654,2653,2651,2651,2649,2647,2643,2640,2635,2631,2624,2618,2610,2604,2596,2588,2581,2578,2574,2572,2571,2572,2577,2588,2598,2610,2625,2641,2656,2671,2684,2696,2706,2714,2719,2722,2724,2725,2723,2725,2725,2727,2727,2729,2728,2728,2727,2726,2724,2723,2719,2716,2712,2710,2708,2706,2705,2703,2702,2700,2697,2695,2693,2689,2686,2683,2677,2672,2667,2662,2657,2652,2649,2646,2644,2642,2638,2637,2636,2634,2630,2625,2620,2613,2604,2596,2587,2579,2570,2563,2556,2551,2550,2552,2557,2564,2576,2592,2609,2628,2647,2666,2685,2703,2719,2733,2746,2754,2759,2764,2768,2771,2774,2776,2779,2779,2781,2780,2779,2777,2775,2771,2767,2762,2756,2750,2746,2741,2737,2732,2729,2726,2722,2717,2715,2709,2704,2697,2692,2685,2678,2670,2663,2655,2648,2640,2634,2627,2622,2614,2609,2603,2598,2593,2587,2581,2577,2572,2569,2565,2562,2559,2558,2556,2560,2566,2575,2587,2604,2622,2640,2659,2681,2700,2720,2734,2746,2756,2763,2765,2767,2767,2768,2766,2765,2763,2765,2764,2763,2761,2758,2754,2750,2743,2738,2731,2727,2720,2718,2713,2709,2704,2699,2696,2692,2685,2682,2675,2669,2662,2655,2648,2642,2636,2630,2624,2622,2617,2613,2610,2606,2604,2601,2598,2596,2592,2590,2586,2584,2580,2577,2573,2571,2572,2578,2587,2600,2614,2631,2649,2669,2691,2713,2731,2748,2761,2771,2778,2783,2786,2789,2790,2792,2791,2792,2791,2790,2790,2788,2786,2783,2779,2773,2768,2763,2759,2756,2753,2749,2745,2741,2738,2736,2734,2730,2726,2721,2716,2710,2704,2697,2693,2686,2680,2675,2670,2666,2661,2653,2648,2641,2636,2630,2622,2613,2604,2594,2585,2575,2567,2559,2552,2544,2538,2530,2526,2520,2517,2511,2510,2516,2523,2536,2552,2574,2594,2619,2642,2667,2691,2711,2726,2740,2747,2754,2758,2760,2760,2764,2763,2765,2767,2769,2771,2774,2773,2774,2772,2771,2768,2767,2763,2761,2757,2755,2750,2748,2743,2742,2737,2735,2729,2725,2718,2715,2708,2704,2697,2693,2688,2683,2678,2674,2669,2666,2661,2659,2655,2652,2648,2645,2640,2636,2633,2629,2624,2621,2617,2618,2619,2625,2633,2649,2664,2683,2703,2724,2745,2768,2786,2802,2813,2822,2826,2830,2831,2832,2831,2830,2827,2825,2824,2823,2820,2816,2812,2807,2802,2796,2789,2785,2779,2772,2766,2762,2756,2751,2746,2739,2732,2725,2716,2709,2701,2693,2684,2676,2667,2658,2651,2644,2636,2627,2620,2614,2607,2602,2599,2594,2590,2587,2585,2583,2582,2580,2580,2579,2580,2584,2592,2604,2619,2636,2655,2677,2701,2723,2746,2767,2786,2800,2812,2819,2825,2828,2832,2833,2838,2840,2842,2841,2842,2840,2840,2837,2835,2829,2824,2816,2809,2800,2795,2787,2781,2773,2767,2760,2753,2745,2737,2728,2722,2712,2704,2694,2686,2676,2667,2657,2651,2641,2634,2625,2618,2608,2602,2593,2587,2581,2575,2568,2564,2558,2554,2548,2545,2539,2535,2529,2526,2521,2518,2515,2518,2521,2531,2544,2563,2583,2607,2629,2655,2679,2704,2723,2742,2756,2766,2772,2778,2780,2784,2785,2789,2789,2792,2793,2794,2792,2793,2789,2788,2784,2781,2773,2770,2764,2760,2754,2751,2744,2741,2735,2731,2724,2718,2710,2704,2695,2689,2680,2675,2666,2658,2649,2642,2634,2627,2621,2615,2607,2601,2593,2588,2581,2577,2570,2565,2560,2554,2549,2545,2542,2543,2547,2556,2567,2583,2600,2620,2640,2662,2685,2708,2727,2742,2754,2763,2772,2778,2783,2788,2792,2796,2797,2800,2803,2804,2803,2801,2799,2796,2792,2788,2783,2779,2773,2767,2763,2758,2754,2747,2741,2733,2725,2714,2705,2696,2686,2676,2667,2656,2649,2641,2633,2625,2620,2613,2608,2602,2598,2592,2587,2581,2579,2574,2570,2564,2563,2561,2561,2565,2574,2584,2601,2617,2638,2660,2685,2707,2730,2749,2768,2782,2797,2806,2814,2818,2824,2827,2832,2835,2840,2840,2843,2841,2842,2838,2837,2831,2827,2820,2816,2809,2805,2797,2794,2786,2782,2775,2770,2764,2759,2749,2741,2731,2726,2715,2707,2697,2689,2681,2674,2664,2659,2653,2648,2642,2637,2631,2629,2622,2618,2613,2610,2604,2601,2593,2589,2582,2579,2569,2567,2564,2566,2571,2582,2592,2609,2627,2651,2672,2697,2719,2743,2761,2779,2791,2803,2811,2820,2824,2830,2835,2841,2845,2848,2851,2854,2852,2853,2851,2848,2844,2840,2833,2827,2820,2815,2809,2804,2798,2792,2786,2781,2774,2766,2757,2750,2741,2732,2723,2714,2702,2692,2682,2672,2664,2655,2645,2636,2628,2620,2612,2606,2599,2592,2585,2577,2570,2562,2555,2548,2543,2541,2543,2547,2557,2569,2586,2604,2625,2646,2670,2690,2711,2729,2744,2756,2767,2774,2781,2785,2790,2792,2794,2795,2795,2792,2790,2785,2780,2772,2766,2757,2750,2739,2731,2723,2716,2707,2701,2693,2687,2679,2672,2663,2657,2650,2643,2633,2626,2616,2610,2600,2593,2584,2576,2566,2558,2548,2541,2530,2519,2507,2498,2486,2477,2466,2460,2455,2456,2459,2470,2484,2503,2523,2548,2572,2602,2627,2654,2674,2694,2707,2721,2729,2739,2744,2752,2755,2760,2762,2766,2767,2769,2767,2768,2762,2759,2753,2748,2741,2736,2729,2725,2718,2715,2708,2706,2700,2696,2689,2685,2679,2676,2669,2666,2659,2656,2649,2645,2639,2635,2629,2624,2617,2614,2607,2603,2597,2594,2589,2585,2581,2579,2576,2574,2571,2570,2567,2567,2570,2577,2587,2601,2620,2642,2664,2690,2715,2742,2766,2788,2808,2824,2837,2847,2854,2861,2866,2871,2876,2880,2883,2886,2887,2885,2884,2879,2874,2868,2860,2852,2844,2833,2823,2813,2805,2795,2788,2779,2769,2759,2750,2740,2732,2721,2712,2700,2689,2678,2669,2659,2650,2640,2632,2621,2613,2604,2598,2590,2583,2575,2568,2560,2554,2547,2541,2534,2530,2523,2518,2516,2517,2521,2533,2543,2561,2579,2602,2624,2651,2675,2701,2721,2741,2753,2766,2775,2784,2788,2794,2797,2800,2799,2801,2798,2798,2793,2790,2782,2775,2767,2760,2751,2744,2734,2727,2717,2710,2700,2694,2684,2678,2668,2661,2652,2645,2636,2631,2623,2619,2612,2608,2601,2597,2590,2586,2578,2574,2567,2563,2556,2552,2544,2540,2533,2530,2523,2521,2515,2513,2511,2514,2519,2531,2545,2566,2586,2612,2637,2669,2697,2724,2748,2772,2788,2804,2815,2827,2834,2842,2847,2852,2857,2862,2864,2865,2863,2860,2855,2850,2843,2834,2824,2814,2803,2793,2783,2775,2765,2757,2747,2738,2728,2720,2711,2701,2690,2679,2667,2657,2645,2635,2625,2616,2607,2596,2587,2580,2571,2564,2557,2550,2544,2538,2532,2527,2523,2519,2515,2511,2507,2504,2501,2497,2494,2490,2487,2485,2488,2495,2506,2522,2543,2567,2595,2624,2656,2687,2718,2745,2771,2791,2807,2821,2833,2840,2848,2854,2861,2863,2869,2870,2872,2871,2869,2863,2859,2853,2846,2837,2831,2821,2813,2804,2796,2787,2780,2770,2764,2754,2746,2735,2726,2715,2707,2697,2690,2679,2672,2662,2655,2646,2639,2632,2625,2617,2611,2603,2596,2588,2582,2574,2568,2560,2556,2551,2552,2555,2564,2577,2595,2615,2639,2664,2693,2721,2751,2776,2801,2819,2836,2848,2861,2870,2879,2885,2890,2893,2896,2895,2896,2893,2889,2881,2874,2865,2855,2844,2835,2824,2816,2805,2798,2791,2783,2773,2764,2753,2743,2730,2720,2707,2696,2681,2668,2656,2645,2634,2625,2615,2607,2598,2591,2583,2576,2569,2562,2553,2546,2537,2530,2521,2514,2505,2497,2490,2484,2477,2473,2467,2463,2460,2456,2455,2458,2465,2478,2495,2517,2543,2572,2603,2636,2670,2702,2733,2760,2783,2801,2816,2827,2837,2844,2852,2857,2863,2867,2871,2873,2874,2873,2871,2867,2862,2855,2848,2839,2831,2822,2814,2804,2796,2788,2782,2773,2765,2757,2749,2740,2731,2722,2713,2703,2694,2683,2673,2664,2654,2644,2634,2624,2614,2604,2596,2586,2577,2567,2557,2547,2540,2529,2522,2512,2503,2493,2487,2482,2484,2488,2499,2512,2533,2556,2585,2615,2647,2678,2710,2736,2761,2779,2797,2808,2820,2826,2834,2838,2844,2845,2848,2849,2850,2847,2844,2839,2836,2829,2823,2815,2808,2800,2793,2785,2778,2771,2762,2751,2742,2731,2722,2711,2701,2689,2677,2665,2655,2644,2636,2626,2618,2608,2601,2592,2586,2579,2574,2568,2561,2554,2548,2541,2534,2527,2521,2515,2514,2513,2516,2525,2539,2558,2580,2606,2634,2663,2694,2720,2747,2772,2793,2810,2824,2834,2842,2849,2856,2860,2865,2866,2868,2867,2866,2863,2859,2854,2846,2838,2829,2819,2809,2799,2789,2778,2766,2755,2743,2731,2719,2706,2693,2681,2670,2657,2645,2634,2623,2614,2605,2596,2587,2581,2575,2569,2565,2561,2558,2555,2552,2549,2547,2544,2540,2538,2535,2530,2526,2522,2518,2514,2510,2506,2503,2500,2498,2500,2509,2524,2543,2567,2596,2625,2659,2693,2727,2760,2790,2814,2834,2850,2862,2871,2879,2884,2888,2892,2893,2895,2895,2893,2890,2884,2877,2868,2859,2849,2839,2828,2816,2805,2794,2784,2774,2764,2755,2746,2735,2725,2714,2703,2692,2680,2669,2656,2646,2635,2623,2612,2602,2593,2584,2575,2568,2560,2554,2547,2541,2535,2529,2525,2521,2520,2522,2530,2541,2557,2577,2598,2625,2652,2680,2710,2739,2763,2784,2801,2816,2828,2837,2845,2852,2857,2861,2863,2865,2867,2866,2863,2860,2855,2850,2843,2836,2829,2821,2814,2807,2800,2793,2787,2780,2771,2762,2753,2743,2731,2720,2708,2697,2684,2672,2660,2649,2640,2631,2622,2614,2606,2600,2594,2588,2582,2577,2570,2565,2559,2554,2550,2543,2537,2532,2527,2522,2518,2519,2525,2537,2554,2577,2606,2638,2674,2710,2749,2788,2824,2858,2886,2910,2930,2947,2959,2968,2977,2983,2987,2988,2987,2984,2977,2968,2956,2943,2928,2911,2893,2873,2852,2831,2810,2790,2769,2750,2732,2714,2696,2680,2662,2648,2635,2622,2609,2598,2588,2580,2570,2563,2557,2553,2549,2547,2546,2547,2547,2548,2549,2551,2551,2551,2550,2548,2545,2543,2541,2543,2546,2555,2566,2584,2604,2628,2652,2680,2706,2734,2758,2780,2796,2811,2823,2833,2839,2845,2848,2850,2849,2849,2846,2843,2836,2830,2819,2809,2796,2785,2772,2761,2749,2738,2726,2715,2703,2693,2683,2673,2660,2651,2639,2628,2616,2606,2595,2585,2574,2564,2554,2545,2535,2528,2520,2512,2503,2496,2489,2483,2476,2471,2465,2461,2458,2459,2464,2474,2488,2508,2530,2557,2585,2616,2649,2680,2708,2734,2757,2777,2793,2807,2818,2829,2836,2843,2850,2856,2858,2860,2860,2857,2852,2845,2837,2828,2816,2804,2793,2782,2770,2759,2749,2739,2730,2721,2711,2704,2695,2685,2675,2665,2655,2645,2635,2626,2616,2605,2595,2585,2577,2570,2561,2553,2547,2538,2532,2525,2519,2512,2507,2500,2494,2489,2483,2477,2472,2466,2462,2457,2454,2452,2456,2463,2478,2498,2525,2553,2586,2620,2656,2693,2730,2763,2792,2814,2835,2850,2864,2872,2882,2890,2896,2899,2903,2905,2905,2902,2899,2892,2886,2877,2868,2857,2847,2836,2826,2814,2805,2794,2786,2776,2767,2756,2748,2735,2726,2714,2705,2692,2681,2669,2659,2648,2638,2627,2619,2610,2603,2593,2588,2580,2574,2566,2560,2553,2548,2540,2534,2526,2521,2512,2508,2503,2503,2508,2518,2532,2554,2575,2602,2630,2661,2693,2723,2750,2776,2794,2810,2822,2833,2839,2846,2851,2855,2857,2858,2857,2856,2852,2847,2841,2835,2827,2818,2809,2801,2792,2784,2776,2770,2763,2756,2748,2740,2732,2724,2714,2706,2696,2688,2677,2669,2661,2652,2643,2635,2626,2620,2613,2606,2599,2593,2586,2580,2574,2568,2562,2557,2551,2546,2544,2544,2550,2560,2574,2594,2618,2646,2677,2708,2741,2773,2803,2828,2849,2867,2879,2887,2894,2899,2904,2905,2907,2906,2904,2899,2895,2889,2882,2873,2863,2852,2842,2829,2817,2805,2794,2783,2773,2762,2751,2739,2729,2716,2705,2692,2680,2666,2655,2641,2630,2617,2606,2593,2583,2571,2562,2551,2543,2534,2526,2517,2509,2501,2495,2486,2481,2474,2469,2461,2457,2449,2445,2438,2433,2427,2422,2415,2411,2408,2411,2415,2430,2448,2473,2502,2536,2570,2611,2648,2688,2723,2755,2780,2801,2816,2829,2836,2844,2849,2855,2857,2861,2862,2863,2862,2860,2855,2850,2842,2835,2825,2818,2808,2799,2789,2783,2774,2768,2759,2753,2744,2736,2727,2718,2707,2698,2686,2677,2666,2658,2647,2638,2627,2620,2610,2603,2594,2588,2580,2575,2566,2560,2554,2548,2540,2535,2529,2522,2514,2508,2502,2502,2504,2513,2524,2542,2564,2589,2617,2649,2680,2712,2741,2768,2790,2810,2824,2836,2845,2852,2857,2863,2866,2868,2868,2867,2864,2859,2854,2847,2839,2830,2821,2811,2802,2794,2787,2780,2773,2766,2759,2751,2743,2734,2727,2717,2707,2697,2687,2675,2667,2657,2649,2640,2631,2621,2614,2606,2600,2592,2586,2580,2574,2567,2562,2555,2550,2544,2539,2534,2533,2533,2539,2548,2563,2582,2606,2632,2661,2692,2724,2755,2785,2809,2831,2845,2861,2871,2878,2882,2886,2889,2892,2893,2896,2894,2893,2886,2882,2873,2868,2856,2848,2836,2825,2811,2802,2792,2783,2771,2764,2754,2747,2737,2729,2718,2710,2699,2689,2678,2670,2657,2648,2635,2626,2614,2606,2593,2584,2572,2564,2553,2545,2535,2529,2519,2513,2503,2498,2490,2484,2477,2472,2464,2459,2450,2444,2436,2433,2430,2434,2441,2456,2476,2503,2533,2570,2607,2648,2687,2727,2761,2793,2818,2837,2852,2866,2874,2881,2886,2891,2894,2898,2898,2900,2900,2899,2894,2889,2882,2876,2869,2862,2854,2847,2839,2831,2823,2817,2808,2800,2789,2779,2769,2757,2743,2731,2717,2705,2693,2681,2669,2658,2646,2635,2627,2617,2607,2600,2591,2582,2574,2566,2559,2552,2545,2538,2533,2527,2522,2520,2525,2533,2546,2563,2585,2609,2638,2666,2697,2727,2757,2780,2800,2817,2830,2839,2847,2852,2857,2860,2863,2862,2864,2863,2861,2856,2851,2844,2837,2827,2819,2810,2803,2793,2786,2778,2773,2765,2757,2749,2742,2732,2724,2712,2703,2691,2682,2670,2660,2648,2643,2632,2625,2616,2610,2601,2595,2586,2581,2572,2566,2554,2548,2540,2533,2524,2518,2509,2504,2500,2504,2510,2525,2541,2566,2592,2624,2655,2691,2725,2757,2784,2809,2826,2843,2853,2863,2869,2875,2878,2884,2888,2893,2895,2899,2898,2899,2895,2891,2885,2882,2875,2871,2862,2857,2850,2845,2838,2834,2827,2820,2809,2799,2788,2778,2764,2754,2739,2726,2711,2698,2684,2672,2657,2645,2633,2623,2610,2600,2590,2584,2573,2563,2554,2545,2535,2528,2518,2509,2500,2490,2479,2470,2463,2456,2450,2450,2452,2463,2479,2502,2530,2562,2597,2633,2670,2706,2739,2768,2793,2811,2825,2836,2844,2850,2854,2858,2862,2864,2865,2863,2862,2859,2854,2847,2840,2831,2822,2812,2803,2794,2786,2777,2770,2762,2755,2746,2739,2728,2719,2710,2701,2690,2680,2668,2657,2644,2634,2622,2613,2601,2592,2582,2574,2564,2558,2550,2544,2536,2531,2524,2520,2513,2513,2514,2523,2533,2553,2573,2599,2626,2657,2686,2718,2746,2773,2793,2811,2822,2835,2841,2849,2852,2857,2859,2864,2862,2863,2859,2857,2848,2843,2832,2824,2812,2803,2789,2781,2769,2761,2749,2742,2729,2721,2709,2701,2688,2677,2663,2652,2639,2628,2614,2605,2591,2582,2569,2562,2550,2542,2532,2525,2515,2508,2498,2490,2481,2475,2465,2460,2452,2448,2439,2436,2430,2427,2424,2424,2426,2436,2449,2470,2496,2530,2566,2606,2648,2692,2733,2773,2807,2836,2858,2876,2888,2899,2905,2911,2914,2918,2920,2922,2922,2922,2920,2916,2909,2902,2892,2882,2871,2861,2850,2837,2826,2815,2803,2793,2782,2772,2760,2749,2737,2725,2713,2701,2689,2677,2664,2652,2640,2628,2617,2605,2595,2585,2576,2568,2559,2551,2545,2537,2530,2522,2515,2507,2499,2490,2482,2475,2470,2468,2472,2480,2496,2516,2540,2567,2597,2629,2662,2692,2722,2746,2769,2784,2797,2806,2814,2819,2825,2827,2829,2829,2828,2824,2821,2815,2808,2799,2792,2782,2775,2765,2759,2750,2745,2737,2733,2726,2722,2712,2705,2694,2685,2673,2663,2650,2641,2627,2616,2604,2595,2583,2576,2567,2559,2551,2546,2537,2532,2525,2521,2516,2518,2521,2532,6,2,0
2820,2814,2808,2800,2796,2788,2781,2772,2765,2754,2745,2734,2723,2710,2699,2688,2679,2668,2660,2649,2642,2632,2625,2615,2609,2601,2594,2587,2583,2577,2574,2568,2566,2562,2560,2558,2555,2550,2548,2544,2540,2535,2531,2525,2521,2515,2513,2512,2515,2522,2532,2546,2565,2588,2616,2644,2672,2700,2727,2752,2774,2793,2807,2817,2824,2827,2830,2832,2832,2830,2827,2822,2816,2810,2804,2797,2788,2780,2773,2768,2761,2755,2752,2751,2750,2749,2746,2745,2742,2738,2733,2729,2724,2718,2709,2700,2690,2682,2672,2663,2653,2645,2635,2625,2616,2610,2603,2597,2591,2588,2584,2581,2577,2575,2573,2572,2567,2565,2563,2562,2563,2567,2576,2588,2604,2624,2645,2672,2696,2723,2748,2772,2790,2807,2818,2826,2830,2832,2831,2831,2828,2826,2820,2817,2809,2804,2796,2790,2781,2775,2766,2760,2753,2749,2744,2739,2735,2732,2728,2724,2718,2714,2708,2702,2695,2688,2679,2673,2663,2655,2644,2636,2625,2615,2605,2597,2589,2584,2577,2574,2570,2569,2567,2567,2566,2566,2565,2565,2562,2561,2558,2557,2554,2552,2548,2546,2542,2538,2535,2535,2535,2540,2545,2557,2574,2597,2620,2649,2681,2712,2744,2776,2803,2829,2850,2867,2880,2889,2893,2895,2898,2898,2897,2895,2892,2888,2882,2876,2870,2863,2855,2846,2837,2827,2819,2810,2803,2794,2789,2783,2777,2770,2765,2758,2752,2744,2737,2728,2721,2711,2701,2690,2681,2669,2660,2650,2641,2632,2623,2613,2605,2596,2590,2583,2581,2576,2573,2568,2567,2564,2565,2563,2564,2563,2565,2563,2565,2563,2565,2564,2566,2565,2569,2573,2583,2593,2611,2627,2652,2674,2701,2725,2754,2778,2803,2821,2842,2853,2866,2871,2879,2881,2885,2884,2884,2880,2878,2868,2863,2853,2845,2834,2827,2817,2809,2799,2792,2784,2780,2773,2768,2761,2755,2744,2738,2726,2717,2705,2695,2681,2672,2661,2651,2641,2635,2625,2619,2612,2608,2602,2599,2593,2589,2584,2581,2575,2574,2571,2568,2565,2564,2562,2560,2556,2555,2552,2552,2549,2550,2555,2563,2572,2586,2603,2622,2644,2667,2687,2711,2732,2752,2768,2780,2788,2795,2800,2803,2804,2804,2803,2798,2794,2788,2782,2777,2771,2764,2759,2753,2748,2744,2740,2736,2733,2729,2728,2724,2722,2718,2715,2712,2707,2702,2697,2692,2687,2680,2675,2666,2659,2649,2642,2635,2629,2622,2615,2607,2604,2598,2595,2592,2591,2588,2586,2582,2583,2584,2586,2586,2594,2601,2617,2630,2650,2667,2689,2711,2735,2754,2776,2791,2806,2813,2822,2824,2830,2831,2832,2829,2829,2822,2820,2813,2810,2802,2798,2789,2785,2777,2773,2766,2764,2758,2757,2753,2754,2749,2747,2740,2737,2730,2727,2719,2715,2705,2697,2688,2683,2674,2670,2663,2658,2651,2645,2638,2635,2628,2622,2616,2610,2603,2598,2591,2587,2583,2583,2581,2583,2584,2591,2602,2617,2633,2654,2679,2705,2729,2756,2779,2803,2820,2834,2843,2851,2853,2850,2846,2841,2834,2827,2817,2807,2797,2788,2778,2768,2759,2749,2740,2731,2723,2717,2711,2705,2700,2694,2690,2683,2679,2676,2671,2664,2658,2651,2646,2639,2633,2626,2621,2613,2603,2596,2591,2584,2580,2571,2567,2562,2558,2554,2554,2552,2553,2551,2553,2551,2553,2553,2554,2553,2554,2550,2551,2547,2545,2544,2547,2548,2558,2569,2587,2605,2631,2655,2686,2714,2743,2770,2797,2816,2834,2844,2856,2861,2867,2867,2870,2870,2872,2869,2870,2866,2865,2860,2858,2852,2849,2840,2836,2824,2820,2812,2806,2800,2795,2786,2780,2770,2765,2754,2747,2736,2727,2715,2706,2693,2686,2675,2668,2659,2653,2645,2638,2630,2626,2618,2615,2608,2606,2600,2599,2595,2593,2591,2590,2587,2586,2583,2580,2575,2572,2569,2568,2569,2574,2581,2593,2608,2626,2647,2670,2694,2719,2743,2765,2782,2797,2809,2817,2822,2825,2827,2828,2827,2825,2822,2820,2817,2813,2808,2803,2797,2791,2785,2779,2774,2769,2765,2759,2755,2752,2748,2743,2739,2733,2729,2721,2713,2703,2697,2688,2680,2670,2663,2653,2644,2633,2626,2619,2614,2607,2601,2594,2592,2589,2587,2584,2584,2581,2581,2578,2578,2580,2587,2595,2609,2623,2644,2664,2689,2715,2743,2770,2797,2817,2836,2849,2861,2866,2872,2871,2873,2869,2867,2858,2852,2843,2836,2825,2816,2803,2793,2778,2767,2753,2745,2735,2728,2718,2713,2706,2704,2698,2695,2689,2684,2676,2672,2663,2657,2647,2640,2629,2620,2610,2603,2594,2587,2577,2571,2563,2558,2551,2547,2545,2544,2541,2541,2536,2535,2533,2531,2526,2522,2518,2513,2509,2507,2507,2514,2524,2539,2557,2581,2605,2633,2663,2692,2719,2745,2766,2785,2799,2813,2823,2830,2833,2836,2837,2837,2838,2837,2834,2830,2823,2815,2807,2798,2789,2779,2770,2761,2753,2745,2738,2732,2726,2720,2715,2707,2702,2695,2687,2679,2672,2662,2652,2643,2635,2626,2620,2611,2604,2598,2593,2588,2585,2581,2580,2577,2574,2571,2569,2567,2565,2563,2562,2558,2557,2553,2551,2548,2546,2543,2545,2544,2550,2556,2572,2587,2610,2634,2663,2691,2723,2751,2780,2803,2826,2841,2854,2861,2867,2869,2870,2867,2865,2862,2861,2857,2854,2848,2844,2837,2833,2824,2819,2812,2806,2796,2792,2784,2778,2770,2765,2756,2750,2742,2735,2726,2718,2707,2698,2688,2679,2669,2662,2653,2644,2634,2626,2617,2611,2602,2596,2590,2587,2580,2576,2570,2566,2561,2559,2554,2552,2550,2551,2553,2562,2573,2591,2612,2635,2661,2689,2717,2745,2773,2798,2818,2834,2844,2852,2855,2856,2855,2852,2849,2844,2836,2829,2822,2813,2804,2796,2786,2777,2769,2760,2753,2748,2742,2736,2733,2727,2722,2718,2713,2707,2702,2694,2686,2677,2670,2660,2651,2642,2632,2622,2613,2603,2593,2585,2579,2572,2568,2563,2559,2554,2552,2547,2545,2541,2538,2532,2528,2523,2523,2523,2529,2537,2551,2567,2591,2615,2643,2672,2704,2733,2762,2787,2810,2825,2841,2848,2857,2860,2863,2863,2864,2860,2858,2853,2849,2841,2836,2827,2819,2808,2801,2791,2785,2775,2768,2760,2754,2747,2740,2733,2727,2716,2708,2697,2688,2676,2668,2656,2646,2635,2626,2615,2607,2598,2590,2582,2577,2570,2566,2559,2556,2552,2550,2548,2546,2544,2542,2539,2537,2534,2532,2530,2528,2524,2520,2517,2516,2514,2516,2520,2529,2542,2560,2582,2610,2641,2674,2709,2745,2779,2809,2836,2858,2874,2888,2897,2904,2907,2908,2907,2905,2902,2898,2892,2885,2875,2865,2854,2841,2831,2820,2811,2803,2793,2785,2776,2770,2764,2756,2750,2742,2732,2724,2714,2704,2694,2684,2673,2662,2652,2641,2629,2620,2610,2601,2594,2586,2580,2575,2571,2566,2562,2560,2556,2553,2552,2549,2546,2542,2540,2538,2536,2534,2530,2526,2521,2515,2511,2506,2505,2504,2508,2518,2531,2550,2575,2603,2635,2671,2705,2741,2774,2803,2827,2847,2863,2873,2880,2883,2885,2886,2886,2884,2882,2879,2876,2872,2866,2860,2854,2847,2838,2829,2821,2814,2806,2799,2791,2786,2779,2772,2763,2755,2747,2739,2729,2719,2708,2700,2689,2679,2669,2660,2649,2639,2629,2619,2610,2602,2593,2587,2579,2573,2568,2564,2559,2555,2550,2545,2541,2536,2532,2527,2525,2525,2529,2538,2552,2572,2594,2621,2651,2683,2715,2745,2774,2801,2822,2839,2851,2859,2865,2868,2871,2871,2872,2874,2873,2870,2865,2860,2853,2842,2831,2817,2803,2789,2773,2758,2747,2736,2724,2716,2710,2702,2698,2692,2685,2678,2673,2664,2656,2648,2639,2629,2621,2611,2602,2593,2586,2577,2573,2567,2563,2561,2559,2557,2556,2556,2557,2557,2557,2555,2555,2553,2552,2550,2552,2554,2561,2570,2585,2604,2629,2655,2688,2720,2757,2789,2824,2853,2878,2899,2916,2929,2939,2944,2950,2948,2948,2944,2941,2935,2930,2920,2910,2897,2884,2868,2856,2841,2828,2813,2800,2788,2777,2766,2757,2747,2739,2729,2721,2712,2702,2691,2680,2668,2657,2644,2633,2619,2607,2592,2579,2568,2557,2547,2540,2534,2528,2523,2522,2520,2520,2521,2522,2523,2524,2522,2522,2519,2516,2512,2509,2504,2501,2500,2504,2512,2527,2547,2574,2604,2637,2673,2712,2748,2783,2814,2843,2863,2877,2888,2895,2899,2900,2900,2898,2895,2891,2884,2879,2872,2864,2854,2842,2831,2817,2803,2791,2781,2769,2758,2749,2740,2731,2723,2714,2704,2694,2682,2666,2652,2638,2624,2610,2598,2586,2577,2566,2556,2547,2541,2533,2530,2524,2521,2515,2511,2506,2503,2501,2499,2497,2495,2492,2491,2487,2485,2482,2481,2477,2474,2471,2470,2471,2476,2483,2498,2518,2544,2572,2608,2643,2683,2721,2759,2792,2824,2846,2864,2877,2887,2890,2893,2891,2890,2886,2881,2875,2869,2862,2854,2843,2836,2826,2818,2808,2800,2793,2786,2779,2775,2767,2765,2759,2755,2748,2743,2732,2722,2711,2700,2687,2676,2662,2650,2637,2627,2616,2609,2600,2595,2589,2584,2579,2576,2571,2569,2565,2560,2554,2550,2544,2539,2535,2530,2527,2527,2529,2537,2550,2568,2591,2618,2648,2680,2712,2746,2778,2806,2831,2851,2867,2877,2884,2889,2889,2887,2883,2877,2870,2861,2850,2838,2825,2811,2798,2785,2774,2763,2754,2746,2740,2736,2732,2727,2723,2717,2713,2708,2701,2691,2682,2670,2659,2646,2635,2622,2610,2597,2583,2570,2560,2549,2540,2529,2521,2512,2505,2496,2491,2485,2482,2477,2474,2470,2472,2474,2483,2493,2511,2531,2560,2589,2626,2661,2703,2741,2777,2809,2839,2860,2880,2892,2904,2906,2910,2908,2908,2903,2900,2894,2890,2881,2876,2863,2855,2841,2832,2821,2814,2805,2798,2790,2785,2776,2772,2764,2761,2752,2746,2735,2728,2719,2711,2701,2693,2683,2674,2663,2654,2642,2634,2621,2611,2598,2588,2576,2566,2557,2549,2540,2534,2525,2518,2509,2503,2495,2490,2485,2483,2484,2492,2505,2524,2547,2578,2611,2649,2689,2731,2770,2807,2840,2869,2891,2909,2922,2932,2938,2939,2939,2938,2933,2927,2918,2908,2899,2888,2876,2864,2852,2839,2828,2817,2808,2800,2793,2785,2779,2771,2763,2755,2746,2736,2726,2713,2701,2687,2673,2659,2647,2633,2623,2611,2602,2590,2583,2573,2569,2564,2560,2555,2552,2547,2546,2543,2542,2539,2538,2531,2528,2524,2522,2520,2522,2525,2535,2548,2566,2589,2618,2645,2680,2710,2745,2773,2801,2821,2844,2856,2869,2873,2880,2879,2882,2878,2878,2873,2869,2859,2853,2841,2833,2820,2812,2798,2788,2774,2764,2753,2744,2735,2730,2721,2714,2705,2700,2690,2687,2676,2670,2661,2651,2642,2632,2623,2615,2603,2596,2582,2575,2565,2559,2550,2543,2536,2530,2522,2518,2514,2512,2507,2505,2503,2503,2500,2500,2496,2495,2493,2495,2499,2510,2522,2539,2559,2584,2611,2644,2674,2705,2731,2756,2774,2788,2797,2803,2805,2802,2799,2794,2789,2785,2780,2776,2769,2763,2759,2753,2749,2746,2742,2737,2735,2733,2731,2730,2730,2726,2725,2720,2716,2710,2706,2697,2690,2681,2675,2667,2661,2653,2648,2641,2635,2627,2623,2617,2612,2604,2598,2591,2586,2577,2573,2566,2561,2553,2550,2543,2541,2540,2545,2550,2563,2577,2597,2618,2647,2671,2702,2729,2757,2779,2804,2818,2834,2841,2850,2850,2852,2850,2849,2842,2837,2826,2819,2807,2799,2786,2779,2769,2764,2756,2755,2753,2757,2757,2762,2762,2769,2768,2771,2766,2763,2754,2747,2734,2724,2711,2700,2684,2673,2656,2644,2629,2618,2605,2596,2584,2577,2566,2560,2552,2550,2545,2545,2546,2550,2556,2567,2581,2599,2618,2643,2667,2695,2723,2751,2774,2798,2817,2832,2843,2852,2857,2861,2862,2862,2859,2856,2852,2847,2842,2837,2829,2819,2810,2802,2791,2783,2775,2768,2761,2753,2747,2743,2740,2735,2730,2725,2720,2712,2705,2696,2687,2678,2667,2655,2642,2630,2617,2603,2590,2578,2567,2554,2544,2534,2526,2515,2507,2496,2485,2473,2464,2452,2444,2435,2430,2429,2432,2439,2453,2469,2493,2517,2547,2577,2609,2638,2667,2691,2715,2733,2751,2760,2769,2773,2776,2774,2774,2770,2769,2760,2756,2746,2740,2731,2725,2716,2711,2704,2701,2696,2697,2695,2698,2698,2700,2700,2704,2705,2707,2705,2706,2702,2700,2694,2693,2684,2679,2669,2661,2650,2643,2632,2623,2612,2602,2590,2583,2573,2566,2558,2554,2547,2545,2541,2541,2539,2540,2539,2539,2540,2544,2548,2558,2566,2581,2598,2619,2640,2665,2691,2719,2743,2766,2786,2804,2815,2825,2831,2839,2842,2844,2844,2844,2844,2844,2844,2845,2843,2840,2835,2832,2827,2822,2817,2811,2804,2797,2789,2783,2776,2766,2756,2744,2734,2723,2711,2700,2690,2679,2670,2662,2658,2651,2645,2639,2634,2629,2625,2620,2615,2608,2603,2594,2589,2583,2576,2569,2566,2560,2555,2550,2546,2540,2538,2532,2528,2522,2518,2511,2507,2504,2508,2512,2524,2539,2560,2581,2608,2635,2664,2690,2717,2737,2758,2771,2782,2789,2796,2795,2798,2796,2796,2791,2788,2781,2778,2770,2761,2751,2745,2734,2731,2724,2721,2716,2714,2710,2712,2711,2714,2714,2718,2717,2719,2718,2721,2719,2722,2719,2718,2714,2713,2708,2705,2700,2697,2691,2688,2684,2681,2675,2673,2668,2664,2658,2655,2648,2646,2639,2632,2625,2621,2615,2615,2614,2618,2624,2635,2645,2661,2678,2697,2714,2734,2749,2762,2773,2780,2784,2788,2787,2787,2785,2782,2778,2775,2771,2768,2764,2759,2755,2752,2749,2748,2749,2749,2751,2753,2754,2757,2758,2757,2756,2753,2747,2741,2736,2729,2721,2713,2703,2695,2687,2679,2670,2661,2655,2645,2635,2627,2620,2613,2608,2602,2600,2596,2593,2588,2586,2584,2585,2586,2592,2598,2607,2615,2628,2641,2658,2672,2690,2703,2717,2727,2738,2745,2752,2755,2761,2764,2770,2772,2777,2779,2783,2783,2784,2783,2785,2781,2780,2776,2775,2768,2765,2759,2754,2747,2740,2731,2724,2713,2707,2698,2694,2687,2686,2682,2683,2680,2682,2681,2682,2678,2674,2669,2664,2656,2650,2640,2635,2626,2619,2611,2606,2599,2594,2586,2581,2577,2577,2578,2585,2596,2612,2629,2651,2673,2700,2726,2750,2772,2793,2809,2821,2829,2836,2839,2842,2841,2840,2836,2833,2827,2820,2811,2802,2792,2782,2772,2763,2755,2748,2741,2737,2732,2729,2726,2723,2720,2719,2714,2709,2704,2697,2690,2682,2674,2667,2658,2651,2643,2635,2630,2623,2616,2609,2604,2600,2595,2589,2585,2582,2578,2575,2571,2568,2567,2562,2559,2555,2553,2551,2553,2556,2564,2574,2589,2605,2624,2644,2667,2687,2708,2727,2745,2759,2772,2780,2788,2794,2801,2804,2809,2812,2815,2816,2817,2816,2815,2812,2812,2807,2804,2798,2795,2791,2788,2781,2776,2769,2765,2756,2750,2742,2737,2726,2717,2707,2700,2690,2682,2671,2663,2653,2645,2634,2627,2619,2611,2601,2596,2588,2584,2578,2575,2570,2567,2561,2556,2551,2547,2540,2535,2528,2523,2518,2519,2520,2527,2537,2552,2567,2589,2612,2638,2661,2686,2706,2727,2742,2756,2768,2779,2785,2790,2792,2794,2795,2796,2794,2792,2788,2784,2779,2775,2771,2768,2764,2759,2756,2752,2748,2744,2741,2737,2733,2729,2724,2716,2710,2703,2694,2686,2677,2668,2659,2649,2638,2630,2624,2617,2611,2607,2604,2602,2600,2598,2598,2597,2596,2593,2593,2591,2588,2585,2582,2579,2575,2572,2573,2574,2580,2590,2604,2622,2644,2667,2693,2720,2747,2772,2797,2817,2836,2849,2858,2863,2867,2871,2871,2869,2868,2862,2859,2852,2846,2838,2831,2822,2814,2804,2798,2790,2783,2774,2769,2762,2757,2751,2747,2739,2733,2727,2720,2711,2705,2696,2689,2681,2674,2665,2657,2648,2638,2631,2625,2617,2608,2601,2594,2585,2576,2569,2561,2553,2546,2541,2537,2536,2537,2542,2550,2564,2579,2598,2617,2636,2656,2674,2694,2710,2723,2735,2744,2751,2756,2762,2766,2768,2769,2768,2769,2766,2764,2760,2755,2750,2746,2743,2742,2742,2742,2745,2747,2750,2754,2757,2761,2761,2760,2758,2756,2752,2745,2740,2733,2725,2717,2708,2701,2694,2688,2680,2672,2664,2659,2653,2648,2644,2640,2638,2636,2635,2638,2643,2652,2661,2673,2687,2703,2718,2735,2751,2766,2779,2789,2799,2807,2811,2813,2815,2815,2814,2810,2808,2805,2801,2797,2791,2786,2780,2775,2772,2767,2764,2762,2761,2760,2759,2758,2757,2756,2752,2746,2742,2737,2730,2725,2717,2711,2702,2695,2687,2678,2669,2659,2649,2639,2629,2617,2606,2595,2583,2572,2562,2552,2543,2534,2526,2521,2521,2524,2531,2544,2559,2579,2602,2627,2654,2680,2704,2728,2748,2767,2781,2791,2798,2805,2809,2813,2816,2820,2821,2824,2825,2827,2829,2828,2825,2822,2817,2811,2804,2797,2790,2783,2773,2765,2758,2751,2743,2737,2728,2721,2712,2703,2693,2686,2676,2667,2659,2650,2642,2635,2628,2623,2618,2616,2612,2610,2609,2608,2607,2606,2605,2605,2604,2600,2597,2597,2597,2599,2603,2611,2622,2638,2656,2675,2696,2718,2740,2759,2777,2794,2808,2819,2827,2834,2839,2841,2842,2841,2839,2838,2836,2830,2825,2818,2810,2801,2793,2786,2778,2771,2763,2756,2751,2745,2739,2732,2726,2719,2713,2705,2700,2691,2685,2675,2668,2659,2652,2643,2635,2628,2621,2611,2606,2597,2592,2587,2585,2581,2579,2575,2575,2573,2573,2571,2571,2568,2566,2562,2560,2559,2560,2560,2564,2570,2582,2594,2613,2631,2653,2677,0,0,1
2744,2739,2728,2719,2709,2698,2685,2670,2658,2644,2630,2616,2602,2590,2577,2566,2555,2547,2536,2530,2522,2514,2509,2501,2497,2490,2489,2489,2491,2499,2510,2529,2547,2573,2600,2633,2668,2702,2742,2776,2812,2842,2870,2893,2911,2926,2935,2944,2947,2950,2948,2945,2942,2936,2933,2925,2919,2912,2906,2900,2892,2886,2879,2874,2867,2861,2854,2848,2843,2834,2829,2819,2811,2800,2788,2777,2763,2751,2735,2723,2707,2692,2677,2663,2651,2636,2625,2612,2602,2592,2582,2574,2563,2556,2547,2541,2532,2528,2525,2523,2528,2532,2545,2559,2580,2605,2632,2663,2694,2730,2761,2795,2825,2852,2874,2891,2907,2915,2924,2927,2930,2930,2927,2925,2920,2917,2909,2903,2895,2886,2878,2867,2858,2846,2836,2823,2813,2803,2791,2783,2771,2764,2752,2742,2732,2720,2710,2697,2686,2671,2659,2644,2630,2618,2602,2592,2579,2569,2557,2548,2539,2530,2524,2515,2510,2502,2496,2489,2483,2477,2469,2464,2457,2454,2452,2452,2457,2465,2481,2496,2521,2546,2575,2606,2639,2674,2707,2742,2769,2797,2818,2834,2848,2857,2865,2869,2873,2872,2871,2869,2865,2863,2857,2853,2845,2839,2830,2821,2812,2801,2791,2781,2771,2760,2749,2740,2729,2721,2711,2702,2692,2683,2673,2661,2651,2638,2628,2614,2604,2592,2580,2571,2559,2551,2539,2532,2524,2516,2510,2504,2500,2494,2491,2485,2481,2477,2471,2468,2463,2459,2452,2448,2441,2435,2429,2422,2418,2413,2415,2419,2428,2443,2461,2485,2513,2546,2579,2617,2656,2695,2733,2768,2799,2823,2846,2862,2874,2883,2887,2892,2892,2893,2891,2889,2884,2880,2876,2869,2864,2855,2847,2838,2829,2821,2809,2799,2787,2779,2769,2760,2750,2740,2732,2721,2713,2700,2689,2678,2667,2656,2642,2630,2618,2607,2595,2584,2574,2564,2555,2546,2539,2531,2525,2520,2513,2509,2504,2500,2494,2490,2484,2479,2475,2468,2463,2455,2450,2443,2435,2429,2422,2416,2412,2414,2417,2426,2441,2460,2485,2512,2546,2582,2623,2663,2704,2746,2782,2816,2844,2867,2885,2900,2909,2915,2919,2918,2919,2915,2912,2908,2904,2899,2892,2887,2878,2872,2863,2855,2846,2836,2828,2818,2810,2800,2792,2783,2774,2766,2756,2749,2739,2729,2717,2706,2695,2682,2671,2656,2645,2632,2621,2610,2598,2590,2579,2572,2563,2557,2550,2544,2539,2534,2530,2524,2521,2515,2510,2506,2500,2496,2489,2484,2479,2476,2474,2474,2480,2491,2508,2527,2553,2581,2613,2649,2685,2723,2759,2796,2826,2852,2874,2892,2906,2914,2920,2921,2921,2919,2915,2911,2903,2897,2890,2883,2873,2865,2858,2849,2840,2832,2824,2816,2809,2802,2795,2789,2781,2774,2765,2756,2746,2737,2728,2715,2704,2690,2677,2663,2650,2637,2624,2613,2600,2590,2579,2571,2558,2544,2538,2533,2526,2520,2515,2510,2505,2499,2494,2488,2475,2470,2467,2467,2471,2480,2494,2512,2536,2563,2596,2631,2668,2707,2747,2785,2819,2851,2878,2901,2917,2929,2943,2945,2943,2942,2940,2932,2921,2915,2907,2899,2890,2882,2872,2863,2854,2844,2835,2824,2815,2807,2798,2789,2781,2772,2761,2751,2739,2727,2715,2701,2689,2675,2662,2648,2634,2623,2603,2584,2575,2563,2556,2547,2540,2532,2525,2519,2513,2508,2502,2497,2491,2487,2483,2477,2472,2466,2461,2449,2440,2435,2430,2427,2427,2433,2445,2462,2485,2513,2546,2585,2625,2669,2712,2757,2800,2840,2875,2904,2929,2946,2960,2968,2973,2975,2974,2973,2969,2964,2958,2952,2944,2936,2929,2919,2911,2902,2893,2883,2873,2863,2853,2844,2834,2825,2816,2798,2780,2771,2756,2730,2717,2703,2688,2674,2659,2646,2633,2620,2607,2594,2584,2574,2563,2555,2546,2538,2531,2525,2513,2505,2501,2494,2488,2482,2476,2471,2459,2449,2443,2434,2427,2419,2416,2414,2416,2424,2438,2458,2484,2514,2549,2588,2630,2676,2721,2765,2808,2846,2877,2904,2925,2940,2950,2957,2960,2960,2954,2947,2941,2933,2926,2918,2910,2901,2892,2882,2872,2863,2852,2841,2830,2820,2811,2801,2792,2782,2774,2763,2753,2741,2730,2718,2706,2692,2677,2664,2650,2635,2620,2608,2595,2581,2569,2557,2538,2528,2521,2514,2505,2494,2490,2485,2481,2477,2472,2467,2461,2456,2450,2444,2438,2431,2424,2419,2416,2417,2434,2451,2470,2528,2582,2619,2661,2710,2796,2837,2866,2894,2915,2930,2940,2946,2949,2949,2942,2935,2929,2920,2913,2904,2895,2885,2877,2861,2845,2838,2827,2810,2802,2786,2776,2768,2759,2751,2740,2729,2718,2706,2694,2682,2669,2656,2644,2632,2621,2609,2599,2589,2580,2573,2565,2558,2551,2545,2539,2534,2529,2522,2512,2507,2501,2496,2487,2481,2486,2493,2506,2548,2580,2604,2664,2727,2758,2795,2826,2855,2876,2894,2908,2917,2923,2923,2922,2918,2914,2908,2901,2893,2884,2876,2866,2849,2829,2819,2812,2803,2797,2790,2785,2777,2772,2764,2756,2749,2738,2730,2718,2706,2694,2682,2668,2654,2642,2627,2615,2601,2589,2578,2567,2556,2547,2539,2531,2525,2518,2512,2508,2501,2493,2490,2486,2483,2478,2472,2469,2462,2458,2453,2449,2453,2462,2472,2500,2555,2589,2627,2669,2713,2758,2797,2845,2913,2935,2954,2969,2978,2983,2985,2984,2978,2973,2968,2960,2952,2944,2934,2927,2916,2909,2898,2889,2879,2868,2859,2848,2840,2832,2813,2801,2792,2781,2771,2757,2746,2732,2718,2706,2682,2657,2647,2632,2620,2606,2595,2584,2573,2566,2556,2549,2542,2529,2523,2518,2513,2508,2498,2491,2480,2474,2469,2457,2447,2444,2444,2459,2476,2496,2520,2566,2648,2724,2762,2803,2838,2870,2896,2917,2933,2942,2950,2953,2954,2952,2949,2946,2939,2934,2925,2918,2910,2902,2893,2884,2875,2864,2855,2843,2834,2823,2813,2805,2794,2786,2776,2756,2743,2733,2721,2709,2696,2684,2669,2657,2643,2630,2618,2600,2577,2568,2558,2541,2531,2525,2517,2512,2507,2503,2498,2495,2487,2477,2468,2462,2459,2452,2446,2440,2435,2439,2446,2462,2507,2537,2569,2607,2646,2687,2730,2767,2807,2869,2894,2917,2935,2938,2937,2934,2931,2926,2921,2915,2909,2902,2894,2885,2868,2857,2840,2828,2820,2810,2803,2794,2786,2776,2769,2760,2750,2741,2728,2717,2704,2692,2678,2665,2654,2636,2610,2599,2588,2579,2570,2561,2553,2545,2540,2534,2523,2519,2513,2504,2498,2494,2489,2476,2470,2464,2459,2455,2452,2459,2482,2527,2559,2591,2627,2664,2706,2743,2783,2849,2879,2897,2913,2921,2928,2931,2933,2929,2923,2919,2909,2895,2888,2882,2872,2864,2856,2840,2825,2819,2808,2793,2787,2778,2771,2762,2754,2743,2722,2709,2698,2686,2661,2642,2632,2618,2608,2586,2567,2557,2551,2543,2536,2533,2526,2522,2516,2506,2501,2495,2489,2485,2479,2479,2486,2495,2510,2531,2555,2582,2614,2687,2727,2790,2842,2862,2886,2901,2915,2922,2928,2930,2924,2918,2913,2903,2897,2887,2879,2872,2856,2840,2832,2821,2813,2803,2795,2786,2778,2770,2762,2754,2736,2722,2714,2703,2690,2679,2662,2635,2623,2610,2599,2585,2574,2562,2542,2531,2525,2517,2503,2494,2488,2481,2478,2472,2468,2466,2467,2479,2515,2559,2588,2619,2654,2689,2725,2757,2796,2846,2864,2875,2887,2891,2894,2895,2889,2882,2876,2869,2852,2840,2835,2821,2806,2800,2791,2786,2777,2768,2764,2760,2749,2734,2715,2694,2668,2649,2637,2626,2609,2585,2577,2559,2544,2538,2533,2523,2512,2512,2514,2532,2565,2612,2669,2734,2792,2816,2838,2854,2871,2884,2886,2885,2881,2867,2858,2838,2826,2815,2794,2780,2772,2759,2748,2746,2741,2732,2724,2710,2701,2690,2682,2662,2641,2630,2618,2605,2595,2573,2560,2554,2543,2531,2525,2521,2514,2514,2514,2515,2531,2556,2572,2600,2660,2692,2748,2819,2862,2880,2898,2919,2925,2925,2923,2912,2903,2894,2877,2866,2848,2839,2830,2822,2815,2806,2800,2786,2778,2774,2766,2760,2753,2742,2736,2724,2700,2689,2671,2648,2638,2629,2616,2594,2586,2573,2560,2549,2537,2534,2527,2526,2541,2561,2576,2605,2663,2723,2755,2780,2826,2856,2875,2892,2894,2898,2896,2896,2890,2882,2878,2871,2855,2845,2838,2819,2795,2780,2763,2744,2738,2719,2706,2699,2681,2666,2650,2630,2621,2607,2598,2579,2565,2552,2538,2533,2523,2509,2504,2493,2482,2479,2474,2466,2464,2458,2459,2469,2493,2540,2583,2615,2683,2720,2744,2792,2826,2844,2864,2866,2872,2873,2871,2867,2857,2847,2843,2832,2812,2805,2786,2770,2755,2738,2730,2711,2695,2682,2675,2660,2643,2634,2623,2603,2592,2575,2565,2555,2541,2531,2521,2512,2506,2497,2488,2477,2466,2459,2459,2469,2476,2512,2541,2588,2650,2678,2721,2791,2821,2860,2888,2895,2904,2910,2908,2901,2889,2882,2878,2864,2848,2840,2820,2799,2788,2770,2758,2747,2727,2717,2709,2686,2672,2651,2635,2622,2601,2590,2572,2566,2553,2541,2536,2530,2519,2513,2509,2503,2492,2481,2469,2459,2455,2446,2443,2443,2444,2464,2494,2517,2548,2621,2702,2749,2781,2815,2843,2869,2902,2916,2921,2921,2918,2910,2902,2898,2887,2872,2854,2831,2819,2806,2788,2777,2758,2749,2737,2729,2718,2707,2695,2668,2641,2626,2604,2579,2564,2555,2541,2526,2522,2516,2503,2497,2494,2487,2480,2470,2462,2457,2449,2442,2432,2418,2411,2410,2415,2444,2462,2510,2562,2611,2692,2728,2800,2841,2859,2886,2907,2911,2913,2914,2911,2904,2890,2881,2871,2855,2845,2828,2809,2801,2792,2785,2776,2761,2752,2732,2722,2711,2699,2689,2671,2644,2618,2607,2584,2569,2557,2539,2528,2524,2516,2507,2504,2499,2490,2483,2478,2465,2457,2454,2467,2481,2516,2558,2592,2672,2753,2793,2851,2889,2908,2933,2937,2936,2928,2919,2913,2899,2882,2873,2864,2846,2830,2815,2801,2789,2774,2760,2748,2724,2713,2686,2667,2643,2618,2605,2579,2567,2548,2531,2518,2510,2504,2493,2486,2473,2461,2461,2471,2482,2504,2559,2630,2711,2793,2868,2908,2932,2956,2959,2962,2961,2953,2948,2938,2923,2912,2892,2884,2866,2846,2828,2813,2804,2796,2787,2781,2771,2762,2752,2734,2705,2676,2664,2648,2633,2618,2592,2570,2561,2547,2538,2528,2512,2502,2496,2490,2486,2475,2467,2460,2457,2451,2439,2429,2424,2415,2410,2405,2416,2429,2466,2522,2558,2604,2650,2701,2754,2798,2866,2938,2963,3004,3021,3025,3023,3021,3017,3010,3004,2993,2973,2962,2952,2940,2931,2914,2887,2863,2852,2833,2816,2799,2778,2768,2754,2742,2729,2699,2679,2658,2627,2614,2601,2572,2557,2539,2523,2514,2498,2485,2477,2468,2455,2448,2444,2433,2421,2417,2409,2403,2395,2390,2406,2436,2461,2493,2532,2572,2617,2667,2712,2776,2870,2935,2976,2989,2994,2998,2992,2980,2974,2967,2947,2933,2927,2910,2891,2881,2869,2857,2847,2827,2804,2788,2776,2765,2752,2725,2709,2696,2672,2637,2610,2597,2582,2554,2526,2514,2500,2485,2476,2463,2458,2448,2442,2434,2422,2408,2395,2389,2381,2376,2374,2373,2391,2421,2446,2479,2515,2606,2671,2716,2768,2816,2857,2895,2923,2963,2983,2987,2988,2985,2973,2955,2948,2930,2906,2889,2880,2866,2842,2822,2811,2802,2796,2780,2765,2753,2727,2712,2698,2682,2667,2652,2629,2595,2568,2556,2543,2531,2523,2510,2497,2492,2485,2475,2464,2460,2455,2446,2443,2441,2439,2451,2467,2487,2506,2553,2617,2657,2745,2789,2856,2900,2926,2956,2961,2966,2962,2960,2948,2934,2926,2915,2902,2894,2884,2875,2864,2854,2846,2835,2821,2816,2805,2796,2790,2781,2771,2761,2749,2737,2710,2691,2677,2661,2645,2630,2615,2602,2589,2578,2561,2540,2527,2520,2514,2507,2501,2494,2490,2482,2472,2469,2470,2486,2502,2523,2549,2581,2612,2655,2738,2784,2821,2860,2889,2922,2958,2966,2972,2974,2974,2967,2960,2950,2933,2924,2915,2905,2888,2866,2851,2841,2822,2813,2807,2791,2779,2771,2762,2747,2723,2711,2684,2653,2621,2601,2584,2562,2553,2535,2525,2520,2514,2507,2502,2497,2493,2488,2482,2477,2467,2457,2452,2446,2442,2439,2443,2447,2473,2512,2541,2575,2614,2657,2701,2746,2791,2833,2870,2903,2929,2949,2974,2986,2987,2987,2981,2976,2962,2954,2946,2937,2927,2919,2907,2885,2871,2860,2849,2838,2828,2817,2807,2795,2772,2759,2747,2734,2722,2710,2694,2664,2647,2633,2617,2603,2589,2576,2564,2553,2542,2533,2525,2517,2507,2497,2491,2481,2475,2470,2464,2455,2444,2436,2421,2415,2411,2410,2413,2422,2437,2457,2483,2513,2548,2587,2633,2673,2728,2813,2847,2902,2931,2943,2953,2958,2961,2961,2960,2957,2954,2949,2942,2935,2926,2907,2898,2891,2874,2850,2833,2824,2815,2805,2786,2774,2764,2753,2742,2730,2718,2704,2690,2676,2663,2649,2635,2621,2607,2595,2582,2570,2560,2549,2541,2533,2524,2516,2505,2497,2492,2487,2481,2475,2469,2464,2459,2447,2437,2430,2423,2418,2415,2425,2442,2456,2502,2556,2603,2693,2737,2779,2821,2857,2885,2914,2945,2951,2955,2949,2942,2937,2930,2922,2913,2903,2894,2884,2873,2865,2850,2832,2821,2800,2781,2769,2763,2747,2723,2696,2669,2654,2642,2614,2592,2582,2564,2541,2531,2522,2513,2506,2498,2491,2485,2479,2474,2469,2465,2458,2452,2448,2443,2436,2429,2424,2418,2415,2413,2421,2441,2461,2486,2516,2550,2588,2631,2670,2722,2805,2837,2865,2889,2908,2921,2930,2935,2935,2935,2931,2926,2920,2912,2905,2895,2887,2877,2868,2858,2849,2840,2831,2824,2816,2810,2803,2797,2790,2784,2778,2770,2764,2754,2745,2734,2722,2710,2695,2683,2668,2655,2641,2628,2614,2601,2590,2578,2569,2559,2551,2543,2535,2530,2523,2517,2511,2506,2499,2494,2491,2490,2493,2499,2510,2547,2580,2607,2641,2675,2713,2750,2787,2819,2849,2874,2893,2909,2918,2925,2927,2927,2925,2919,2912,2903,2896,2885,2875,2865,2855,2845,2835,2827,2816,2808,2798,2790,2783,2776,2771,2763,2758,2750,2742,2733,2724,2715,2702,2691,2678,2665,2650,2637,2623,2608,2595,2582,2570,2558,2549,2540,2531,2524,2515,2510,2503,2498,2494,2489,2484,2479,2475,2468,2464,2457,2452,2447,2443,2444,2446,2455,2469,2491,2515,2544,2580,2616,2658,2700,2744,2785,2825,2861,2890,2915,2932,2948,2956,2963,2965,2965,2964,2959,2955,2949,2943,2936,2927,2919,2910,2902,2890,2881,2871,2861,2851,2840,2831,2820,2811,2802,2792,2782,2773,2763,2751,2739,2725,2713,2699,2685,2671,2656,2643,2628,2615,2600,2589,2578,2567,2558,2548,2541,2532,2526,2520,2515,2512,2506,2502,2496,2493,2487,2481,2476,2470,2465,2456,2451,2443,2438,2436,2438,2445,2454,2473,2495,2524,2556,2593,2634,2676,2721,2764,2808,2846,2880,2908,2930,2948,2959,2968,2972,2975,2975,2972,2968,2962,2958,2949,2944,2936,2927,2918,2908,2898,2885,2875,2862,2852,2841,2829,2819,2807,2800,2788,2778,2767,2757,2746,2732,2721,2706,2693,2678,2664,2650,2635,2623,2608,2596,2583,2572,2561,2550,2541,2531,2524,2516,2511,2505,2499,2494,2488,2484,2476,2473,2466,2462,2456,2449,2444,2436,2430,2423,2418,2415,2415,2421,2431,2448,2469,2498,2530,2567,2607,2649,2694,2737,2781,2820,2854,2883,2907,2924,2936,2946,2949,2950,2948,2946,2942,2935,2930,2922,2915,2906,2897,2888,2878,2869,2858,2848,2835,2825,2814,2803,2793,2782,2772,2761,2752,2741,2730,2719,2706,2696,2682,2670,2655,2642,2628,2613,2600,2585,2574,2561,2551,2540,2530,2522,2512,2505,2496,2491,2486,2480,2474,2469,2465,2459,2455,2448,2444,2438,2432,2426,2417,2412,2405,2402,2400,2403,2411,2424,2446,2469,2502,2537,2577,2621,2666,2714,2758,2803,2839,2874,2902,2924,2940,2951,2960,2962,2962,2960,2956,2951,2943,2937,2927,2919,2909,2900,2889,2878,2869,2857,2849,2836,2828,2818,2809,2802,2791,2785,2775,2768,2757,2747,2736,2723,2712,2697,2686,2670,2657,2643,2628,2616,2602,2592,2580,2571,2562,2555,2548,2539,2534,2527,2524,2517,2512,2506,2500,2496,2488,2482,2474,2469,2462,2456,2453,2451,2456,2463,2478,2497,2523,2553,2587,2627,2665,2709,2750,2793,2832,2866,2897,2921,2940,2952,2961,2964,2964,2962,2957,2953,2943,2935,2924,2914,2903,2890,2880,2869,2860,2849,2840,2829,2821,2814,2805,2800,2792,2787,2780,2774,2766,2756,2748,2734,2723,2709,2695,2680,2665,2651,2634,2620,2603,2590,2574,2562,2552,2539,2530,2520,2514,2505,2499,2494,2487,2483,2479,2477,2470,2466,2461,2455,2451,2443,2438,2431,2427,2422,2422,2427,2436,2455,2477,2508,2540,2581,2625,2671,2723,2773,2825,2870,2913,2950,2980,3004,3021,3035,3042,3048,3047,3045,3041,3034,3029,3019,3011,3000,2991,2980,2969,2959,2945,2934,2921,2911,2898,2887,2876,2865,2856,2843,2833,2820,2811,2800,2786,2772,2755,2742,2722,2708,2691,2673,2658,2639,2625,2606,2593,2578,2566,2554,2542,2534,2521,2514,2504,2497,2489,2481,2476,2466,2461,2453,2447,2440,2433,2427,2419,2413,2405,2404,2403,2410,2424,2441,2466,2495,2531,2568,2611,2658,2705,2753,2798,2843,2877,2909,2933,2952,2966,2974,2980,2980,2980,2976,2972,2964,2955,2948,2936,2928,2915,2905,2894,2882,2872,2858,2848,2834,2826,2813,2803,2793,2781,2772,2759,4,4,0
2518,2498,2477,2459,2440,2423,2406,2393,2378,2367,2353,2343,2334,2332,2334,2347,2366,2397,2435,2483,2535,2596,2659,2724,2783,2838,2883,2921,2947,2964,2971,2972,2966,2956,2941,2926,2907,2890,2870,2851,2834,2816,2800,2786,2770,2757,2744,2732,2720,2710,2701,2689,2678,2665,2651,2636,2620,2604,2587,2570,2552,2535,2517,2500,2485,2471,2457,2446,2433,2423,2413,2403,2396,2394,2395,2404,2420,2446,2480,2522,2570,2624,2683,2742,2799,2853,2898,2935,2963,2980,2988,2989,2983,2970,2953,2933,2913,2891,2869,2849,2831,2813,2795,2780,2767,2755,2747,2736,2728,2718,2709,2698,2688,2674,2661,2645,2628,2608,2591,2571,2553,2533,2514,2496,2480,2464,2451,2437,2425,2413,2404,2397,2398,2404,2420,2443,2476,2516,2566,2618,2678,2738,2798,2853,2903,2942,2975,2995,3008,3009,3006,2995,2985,2967,2948,2927,2908,2888,2871,2851,2835,2818,2804,2787,2776,2762,2752,2741,2729,2716,2705,2691,2680,2662,2647,2628,2610,2590,2571,2552,2534,2515,2497,2480,2466,2451,2439,2425,2416,2405,2396,2387,2381,2375,2373,2377,2390,2410,2440,2475,2520,2570,2627,2687,2748,2806,2860,2903,2939,2964,2981,2989,2990,2984,2973,2959,2944,2926,2909,2892,2876,2860,2844,2828,2813,2798,2785,2773,2761,2748,2737,2723,2711,2699,2684,2670,2655,2638,2619,2601,2583,2564,2547,2528,2509,2493,2476,2461,2448,2436,2424,2413,2405,2398,2391,2386,2380,2375,2371,2366,2362,2357,2355,2356,2361,2373,2393,2422,2457,2501,2551,2606,2662,2721,2775,2825,2868,2904,2929,2947,2955,2958,2953,2947,2935,2923,2909,2894,2878,2865,2850,2839,2827,2816,2803,2794,2784,2776,2768,2761,2750,2741,2729,2719,2708,2695,2679,2666,2651,2634,2615,2599,2582,2567,2550,2536,2521,2510,2498,2486,2476,2468,2459,2453,2446,2441,2436,2433,2427,2423,2419,2415,2411,2408,2406,2411,2418,2434,2457,2488,2525,2568,2617,2670,2723,2778,2825,2868,2904,2931,2949,2961,2964,2963,2957,2948,2936,2924,2912,2898,2883,2870,2858,2848,2838,2829,2822,2815,2808,2800,2795,2790,2784,2778,2769,2760,2748,2736,2724,2711,2697,2683,2668,2653,2638,2624,2611,2598,2586,2575,2565,2556,2548,2540,2531,2525,2518,2512,2507,2503,2500,2499,2505,2516,2535,2561,2592,2629,2671,2716,2763,2809,2853,2890,2921,2945,2962,2971,2975,2972,2966,2957,2946,2934,2921,2908,2896,2883,2873,2863,2853,2844,2837,2830,2824,2819,2814,2807,2800,2791,2782,2771,2762,2748,2735,2721,2705,2689,2674,2658,2641,2626,2612,2597,2584,2571,2561,2551,2542,2533,2527,2520,2511,2506,2502,2497,2495,2496,2504,2518,2540,2568,2603,2642,2684,2728,2778,2824,2867,2903,2934,2954,2970,2978,2983,2982,2979,2971,2962,2951,2941,2929,2921,2910,2900,2890,2882,2872,2864,2856,2851,2843,2837,2828,2822,2812,2802,2791,2779,2766,2751,2735,2720,2703,2687,2668,2653,2637,2620,2605,2591,2577,2564,2553,2541,2530,2522,2513,2505,2495,2488,2480,2474,2472,2473,2481,2496,2515,2544,2578,2618,2659,2705,2753,2798,2838,2874,2903,2924,2936,2943,2947,2944,2937,2928,2916,2904,2891,2878,2863,2850,2837,2826,2815,2804,2793,2783,2773,2763,2755,2746,2737,2727,2716,2705,2692,2678,2664,2650,2634,2618,2603,2587,2572,2556,2543,2530,2517,2505,2494,2485,2476,2468,2461,2454,2448,2442,2436,2430,2426,2424,2425,2429,2439,2456,2480,2510,2545,2585,2628,2670,2714,2755,2792,2822,2846,2862,2870,2875,2875,2870,2865,2855,2845,2834,2823,2813,2804,2796,2787,2779,2773,2767,2761,2754,2750,2744,2739,2734,2727,2719,2709,2698,2685,2675,2663,2649,2637,2623,2609,2595,2582,2570,2559,2548,2537,2528,2520,2511,2503,2496,2489,2484,2479,2476,2476,2480,2490,2505,2529,2557,2591,2629,2669,2711,2753,2793,2827,2856,2878,2894,2903,2906,2905,2901,2893,2884,2875,2864,2853,2841,2830,2819,2808,2799,2788,2779,2772,2764,2757,2750,2744,2736,2729,2723,2714,2704,2694,2681,2667,2653,2638,2623,2609,2594,2579,2565,2553,2540,2528,2518,2509,2501,2494,2487,2480,2474,2466,2461,2459,2457,2459,2466,2480,2500,2526,2558,2596,2639,2682,2727,2772,2813,2850,2879,2903,2920,2930,2935,2935,2933,2928,2920,2912,2903,2893,2881,2872,2862,2851,2842,2831,2821,2813,2804,2795,2786,2778,2767,2758,2747,2737,2725,2713,2698,2684,2667,2652,2636,2621,2604,2590,2574,2559,2543,2530,2518,2507,2497,2488,2481,2474,2466,2460,2454,2450,2446,2441,2437,2433,2431,2432,2438,2453,2473,2500,2532,2571,2613,2659,2706,2754,2798,2839,2872,2898,2917,2929,2934,2934,2933,2928,2920,2912,2901,2889,2878,2867,2857,2848,2837,2827,2818,2809,2800,2793,2784,2775,2765,2756,2746,2735,2724,2712,2699,2685,2669,2653,2638,2623,2608,2593,2575,2560,2545,2532,2520,2510,2501,2490,2480,2472,2464,2458,2451,2446,2442,2436,2429,2425,2426,2428,2437,2452,2475,2503,2537,2575,2618,2663,2710,2755,2797,2832,2864,2887,2903,2913,2919,2919,2916,2910,2902,2892,2884,2874,2863,2852,2842,2832,2824,2816,2807,2797,2791,2782,2775,2766,2759,2750,2739,2728,2716,2702,2689,2673,2658,2640,2625,2608,2593,2576,2561,2546,2535,2521,2509,2497,2488,2479,2471,2463,2458,2451,2445,2438,2434,2430,2426,2421,2419,2421,2429,2440,2459,2484,2517,2553,2595,2641,2689,2737,2783,2822,2858,2886,2909,2922,2932,2935,2937,2932,2926,2916,2908,2896,2886,2874,2862,2851,2843,2832,2824,2816,2810,2803,2797,2790,2783,2777,2768,2758,2749,2737,2725,2710,2696,2681,2667,2652,2637,2621,2606,2591,2578,2566,2554,2542,2534,2524,2516,2508,2502,2496,2492,2485,2483,2484,2489,2501,2521,2546,2578,2615,2656,2699,2745,2791,2835,2874,2907,2932,2950,2963,2968,2970,2967,2961,2952,2940,2928,2915,2901,2889,2875,2862,2850,2839,2829,2821,2812,2805,2796,2788,2780,2773,2763,2753,2741,2728,2714,2701,2683,2668,2653,2636,2619,2603,2588,2574,2559,2546,2534,2525,2516,2507,2499,2492,2486,2484,2484,2493,2505,2526,2552,2587,2625,2671,2719,2772,2820,2869,2910,2949,2977,3000,3013,3021,3022,3020,3013,3005,2993,2981,2965,2951,2935,2922,2907,2894,2878,2866,2853,2842,2830,2821,2810,2800,2787,2776,2763,2749,2733,2719,2700,2683,2664,2647,2628,2613,2594,2578,2561,2548,2532,2522,2510,2501,2490,2482,2473,2467,2459,2454,2449,2449,2451,2461,2476,2501,2530,2569,2611,2660,2710,2762,2813,2862,2903,2938,2964,2985,2996,3002,3001,2997,2988,2978,2965,2950,2933,2919,2903,2888,2872,2857,2842,2829,2814,2803,2791,2778,2766,2755,2742,2729,2716,2702,2687,2670,2653,2636,2620,2603,2586,2568,2552,2536,2521,2507,2494,2480,2469,2458,2450,2441,2434,2427,2422,2417,2412,2408,2404,2400,2398,2397,2402,2411,2428,2452,2484,2523,2569,2619,2674,2731,2788,2840,2888,2926,2958,2979,2993,2999,3001,2995,2986,2973,2959,2943,2928,2910,2895,2878,2864,2848,2834,2820,2808,2796,2785,2772,2761,2749,2739,2724,2711,2696,2682,2666,2649,2631,2614,2596,2580,2561,2547,2529,2513,2497,2485,2472,2462,2451,2442,2432,2427,2420,2415,2410,2407,2402,2398,2393,2391,2387,2386,2386,2395,2409,2432,2460,2498,2541,2593,2646,2705,2763,2819,2868,2913,2946,2973,2991,3001,3003,3000,2990,2977,2961,2946,2928,2911,2893,2876,2859,2845,2831,2820,2808,2799,2790,2781,2770,2762,2751,2742,2731,2719,2704,2690,2675,2660,2643,2628,2613,2598,2581,2567,2553,2540,2526,2514,2502,2494,2484,2475,2467,2460,2454,2448,2442,2437,2435,2435,2438,2449,2466,2492,2528,2568,2616,2668,2724,2781,2837,2887,2932,2968,2997,3014,3024,3025,3022,3011,2998,2981,2962,2942,2924,2903,2885,2867,2851,2835,2822,2807,2797,2786,2777,2766,2757,2747,2737,2724,2712,2697,2684,2665,2649,2631,2612,2593,2574,2554,2537,2518,2503,2486,2474,2460,2449,2437,2431,2422,2418,2409,2404,2398,2395,2394,2400,2407,2427,2451,2486,2526,2577,2630,2692,2753,2816,2874,2928,2972,3009,3033,3051,3057,3060,3050,3042,3027,3012,2991,2973,2952,2934,2913,2898,2879,2865,2848,2834,2819,2808,2794,2782,2769,2758,2744,2730,2714,2700,2682,2665,2646,2629,2609,2590,2569,2551,2533,2516,2500,2486,2470,2457,2445,2435,2427,2419,2411,2407,2401,2396,2390,2387,2386,2389,2396,2411,2434,2466,2504,2552,2607,2668,2732,2795,2855,2911,2959,2998,3028,3048,3058,3060,3054,3043,3028,3012,2994,2973,2953,2932,2912,2893,2877,2859,2843,2829,2814,2801,2790,2776,2765,2752,2738,2723,2709,2691,2674,2657,2638,2618,2599,2577,2558,2539,2521,2504,2490,2474,2462,2449,2441,2431,2425,2419,2415,2410,2408,2403,2402,2399,2397,2394,2392,2391,2395,2401,2417,2439,2472,2511,2560,2614,2676,2739,2806,2866,2923,2971,3011,3037,3057,3063,3065,3056,3045,3026,3008,2986,2966,2942,2922,2899,2883,2861,2846,2828,2815,2800,2789,2773,2763,2750,2741,2726,2716,2701,2687,2670,2653,2633,2616,2596,2578,2557,2538,2517,2502,2485,2469,2454,2444,2430,2421,2411,2406,2398,2394,2387,2384,2381,2378,2374,2374,2374,2383,2396,2421,2450,2491,2537,2593,2653,2718,2782,2846,2903,2954,2995,3026,3045,3055,3055,3051,3039,3024,3005,2985,2962,2940,2919,2899,2881,2864,2847,2833,2822,2812,2801,2793,2784,2776,2767,2757,2746,2734,2719,2703,2686,2667,2648,2628,2608,2588,2568,2550,2519,2497,2483,2471,2460,2449,2439,2431,2424,2420,2415,2415,2418,2430,2449,2477,2514,2562,2615,2676,2738,2806,2869,2930,2984,3029,3062,3087,3099,3103,3097,3088,3070,3052,3029,3006,2981,2958,2934,2913,2891,2875,2856,2841,2826,2815,2801,2790,2778,2768,2755,2745,2729,2715,2697,2680,2659,2640,2619,2599,2577,2557,2534,2517,2497,2482,2464,2452,2438,2427,2416,2410,2401,2396,2387,2384,2379,2379,2384,2396,2415,2446,2483,2533,2588,2654,2719,2792,2861,2928,2986,3036,3074,3101,3116,3122,3118,3111,3095,3077,3054,3033,3008,2987,2964,2942,2920,2900,2880,2864,2847,2834,2819,2806,2791,2777,2763,2751,2737,2722,2704,2686,2666,2648,2626,2606,2586,2567,2547,2528,2508,2491,2475,2460,2445,2434,2422,2412,2403,2395,2388,2383,2378,2372,2367,2367,2369,2379,2397,2424,2462,2508,2563,2625,2692,2763,2834,2900,2960,3009,3049,3076,3093,3099,3096,3086,3071,3051,3030,3007,2984,2960,2938,2915,2895,2875,2858,2842,2828,2814,2802,2790,2780,2767,2757,2742,2731,2714,2698,2680,2662,2640,2622,2601,2582,2560,2541,2520,2504,2485,2472,2456,2444,2430,2421,2408,2402,2392,2387,2379,2374,2365,2362,2361,2368,2378,2402,2432,2476,2525,2584,2647,2719,2788,2858,2921,2979,3024,3060,3082,3095,3098,3096,3083,3068,3046,3026,3002,2979,2954,2932,2908,2886,2865,2848,2829,2815,2798,2785,2770,2759,2745,2734,2718,2702,2684,2669,2646,2626,2604,2583,2559,2537,2512,2492,2471,2452,2431,2415,2399,2385,2371,2361,2351,2345,2336,2330,2324,2320,2316,2313,2312,2317,2327,2346,2374,2413,2463,2520,2584,2656,2731,2806,2874,2936,2989,3031,3059,3076,3083,3081,3071,3053,3032,3011,2987,2962,2938,2915,2894,2872,2853,2836,2822,2808,2795,2783,2774,2764,2754,2742,2731,2716,2702,2684,2664,2645,2625,2602,2580,2557,2535,2513,2493,2472,2454,2438,2422,2408,2396,2384,2375,2364,2357,2350,2345,2340,2344,2351,2368,2392,2429,2473,2529,2591,2659,2730,2801,2869,2931,2981,3024,3052,3073,3079,3078,3066,3052,3030,3008,2981,2957,2930,2909,2884,2863,2842,2826,2810,2800,2788,2781,2772,2764,2752,2743,2732,2720,2704,2690,2670,2651,2627,2604,2581,2560,2536,2516,2494,2476,2455,2440,2422,2408,2395,2384,2375,2373,2373,2382,2402,2433,2473,2525,2584,2653,2723,2799,2870,2939,2998,3048,3084,3109,3122,3125,3119,3106,3085,3063,3037,3013,2986,2960,2935,2912,2890,2870,2851,2835,2819,2807,2794,2782,2771,2760,2748,2736,2720,2702,2683,2664,2641,2619,2596,2574,2551,2529,2507,2486,2468,2450,2434,2419,2404,2391,2381,2372,2370,2374,2388,2412,2447,2492,2547,2610,2680,2752,2825,2894,2957,3010,3053,3081,3102,3111,3110,3100,3086,3066,3046,3023,3000,2975,2953,2928,2905,2882,2861,2840,2823,2805,2790,2772,2760,2744,2732,2715,2700,2682,2663,2643,2625,2602,2581,2557,2534,2510,2491,2469,2451,2432,2416,2399,2385,2371,2362,2350,2342,2331,2325,2321,2325,2333,2355,2383,2424,2472,2534,2597,2669,2738,2809,2873,2931,2975,3010,3031,3042,3042,3036,3022,3006,2985,2964,2940,2917,2892,2871,2848,2828,2805,2789,2772,2759,2743,2729,2715,2705,2691,2678,2664,2651,2632,2616,2594,2574,2554,2535,2512,2492,2473,2456,2436,2420,2405,2392,2381,2370,2358,2349,2339,2333,2329,2332,2341,2361,2388,2426,2472,2526,2587,2651,2716,2781,2839,2891,2930,2959,2979,2986,2985,2978,2963,2945,2923,2900,2876,2854,2831,2810,2790,2773,2758,2744,2732,2722,2713,2705,2698,2691,2683,2672,2661,2649,2636,2620,2603,2585,2565,2545,2526,2506,2489,2470,2453,2437,2422,2407,2395,2385,2376,2371,2375,2386,2407,2437,2478,2524,2581,2641,2705,2769,2831,2888,2935,2972,2999,3013,3021,3019,3012,2997,2981,2959,2938,2914,2892,2869,2849,2828,2810,2790,2778,2763,2752,2740,2732,2721,2711,2698,2686,2672,2658,2640,2623,2604,2585,2562,2543,2523,2504,2484,2469,2452,2438,2423,2411,2398,2390,2383,2380,2383,2395,2414,2445,2486,2536,2592,2656,2721,2788,2851,2911,2960,3001,3029,3049,3055,3055,3047,3036,3020,3002,2981,2961,2939,2918,2896,2877,2858,2841,2822,2807,2791,2776,2761,2748,2734,2721,2706,2690,2673,2656,2638,2618,2597,2577,2558,2538,2516,2498,2480,2462,2446,2431,2417,2406,2395,2383,2375,2368,2359,2353,2347,2345,2348,2357,2373,2399,2437,2484,2539,2600,2667,2735,2804,2870,2928,2979,3020,3046,3062,3069,3067,3060,3049,3033,3016,2997,2977,2955,2934,2914,2895,2875,2857,2838,2820,2801,2786,2770,2755,2741,2726,2709,2693,2675,2658,2636,2616,2594,2574,2552,2531,2509,2489,2469,2452,2434,2420,2405,2395,2382,2373,2363,2357,2349,2344,2339,2333,2331,2332,2335,2353,2375,2411,2453,2504,2562,2626,2693,2761,2825,2886,2933,2973,3001,3020,3029,3030,3023,3012,2995,2980,2959,2941,2919,2899,2879,2861,2843,2827,2811,2798,2782,2771,2757,2747,2735,2725,2713,2699,2684,2669,2650,2632,2612,2594,2574,2553,2532,2512,2494,2476,2459,2446,2433,2422,2414,2404,2396,2389,2384,2383,2385,2395,2412,2440,2473,2516,2569,2626,2687,2750,2813,2872,2923,2967,2998,3019,3030,3033,3029,3019,3003,2985,2965,2943,2919,2897,2878,2859,2839,2822,2806,2791,2779,2768,2758,2749,2740,2728,2717,2707,2693,2677,2662,2644,2623,2603,2584,2563,2543,2522,2502,2484,2467,2450,2435,2423,2412,2399,2389,2383,2380,2383,2395,2415,2448,2488,2539,2595,2659,2724,2792,2857,2916,2968,3009,3038,3058,3065,3066,3059,3050,3033,3015,2995,2975,2954,2934,2913,2892,2871,2854,2835,2819,2804,2791,2776,2765,2753,2740,2727,2713,2697,2682,2663,2645,2623,2603,2581,2560,2538,2518,2498,2477,2456,2439,2423,2408,2395,2383,2372,2362,2352,2346,2343,2349,2359,2379,2409,2451,2502,2561,2625,2695,2766,2837,2900,2956,3002,3038,3062,3075,3078,3074,3065,3051,3033,3016,2996,2976,2955,2933,2912,2892,2873,2855,2837,2821,2804,2790,2775,2762,2749,2735,2718,2700,2682,2663,2641,2619,2596,2574,2550,2526,2505,2484,2464,2445,2427,2410,2394,2380,2368,2357,2347,2337,2330,2323,2316,2310,2306,2307,2316,2333,2359,2396,2443,2498,2563,2633,2708,2784,2857,2921,2977,3023,3056,3077,3088,3087,3080,3068,3051,3030,3010,2986,2963,2939,2917,2897,2878,2859,2843,2827,2812,2797,2783,2769,2756,2742,2728,2712,2695,2675,2656,2634,2613,2589,2566,2543,2519,2496,2475,2453,2433,2413,2395,2379,2364,2352,2341,2331,2322,2314,2308,2302,2297,2293,2287,2282,2278,2277,2285,2300,2325,2361,2407,2465,2531,2604,2684,2764,2845,2918,2981,3033,3073,3101,3116,3120,3116,3104,3089,3068,3044,3019,2995,2969,2944,2923,2902,2882,2864,2848,2835,2821,2811,2800,2790,2780,2767,2754,2739,2723,2704,2683,2663,2641,2616,2592,2568,2543,2520,2498,2477,2457,2437,2419,2403,2391,2377,2365,2356,2348,2341,2335,2331,2326,2323,2322,2325,2337,2359,2392,2435,2488,2551,2621,2697,2776,2856,2934,3002,3058,3103,3135,3154,3162,3160,3150,3134,3114,3089,3062,3034,3006,2979,2952,2928,2906,2887,2868,2851,2836,2824,2814,2804,2793,2781,2769,2754,2738,2720,2701,2679,2654,2631,2607,2581,2555,2531,2507,2484,2461,2440,2421,2405,2389,2375,2363,2351,2341,2333,2324,2318,2313,2313,2319,2334,2360,2398,2448,2507,2575,2653,2736,2821,2905,2983,3052,3109,3151,3181,3199,3205,3200,3190,3172,3149,3124,3096,3068,3040,3012,2986,4,2,5
2502,2514,2528,2548,2569,2594,2617,2645,2670,2697,2718,2739,2753,2766,2773,2779,2781,2784,2785,2788,2789,2791,2790,2792,2792,2792,2790,2789,2785,2782,2777,2774,2769,2767,2763,2761,2756,2756,2753,2751,2748,2746,2743,2742,2739,2735,2730,2727,2722,2718,2713,2710,2707,2704,2700,2696,2694,2691,2687,2684,2679,2676,2674,2674,2675,2681,2690,2704,2718,2737,2755,2774,2791,2807,2820,2828,2832,2832,2829,2823,2815,2807,2797,2787,2778,2770,2762,2755,2745,2736,2727,2719,2709,2701,2694,2686,2679,2674,2669,2666,2664,2662,2660,2658,2656,2653,2649,2645,2641,2638,2634,2630,2627,2623,2620,2617,2614,2613,2613,2613,2613,2613,2612,2613,2612,2610,2609,2609,2612,2617,2626,2639,2654,2674,2694,2717,2740,2763,2784,2801,2813,2822,2826,2826,2824,2819,2814,2809,2804,2797,2791,2787,2781,2774,2767,2762,2755,2748,2742,2736,2730,2725,2720,2715,2711,2706,2701,2697,2693,2687,2681,2675,2671,2665,2662,2658,2654,2651,2647,2644,2641,2637,2635,2631,2628,2624,2621,2622,2625,2629,2639,2651,2665,2680,2698,2717,2734,2749,2763,2771,2776,2776,2774,2768,2760,2751,2740,2730,2721,2710,2699,2688,2679,2671,2663,2655,2649,2641,2637,2632,2629,2627,2626,2625,2623,2619,2617,2614,2611,2607,2602,2598,2597,2595,2594,2593,2594,2594,2595,2596,2600,2604,2608,2612,2616,2619,2625,2629,2634,2640,2651,2662,2676,2692,2710,2729,2748,2767,2784,2799,2810,2818,2823,2824,2822,2817,2812,2805,2798,2790,2784,2776,2768,2758,2747,2734,2722,2707,2693,2679,2668,2656,2648,2640,2633,2627,2623,2619,2616,2612,2611,2608,2607,2605,2607,2608,2611,2615,2621,2626,2633,2638,2645,2651,2658,2663,2668,2671,2673,2674,2675,2674,2674,2673,2674,2678,2685,2693,2707,2723,2743,2761,2782,2803,2822,2839,2853,2864,2874,2880,2887,2893,2902,2911,2923,2938,2955,2973,2991,3009,3027,3041,3056,3067,3079,3087,3093,3097,3100,3101,3100,3097,3092,3085,3078,3066,3056,3045,3033,3021,3008,2995,2983,2973,2963,2954,2946,2938,2930,2924,2919,2914,2911,2906,2902,2897,2892,2888,2885,2880,2877,2873,2870,2867,2868,2873,2882,2894,2909,2926,2945,2964,2984,3002,3018,3031,3039,3042,3041,3036,3029,3019,3009,2999,2993,3000,3036,3107,3201,3299,3398,3498,3598,3698,3798,3895,3979,4034,4052,4046,4032,4013,3987,3954,3912,3861,3802,3736,3667,3594,3519,3443,3369,3295,3223,3155,3090,3027,2966,2905,2844,2782,2721,2662,2604,2551,2501,2456,2415,2381,2354,2334,2321,2314,2309,2305,2301,2297,2294,2291,2284,2274,2260,2241,2218,2194,2171,2150,2129,2111,2094,2081,2071,2064,2060,2058,2059,2061,2064,2067,2070,2075,2079,2084,2090,2098,2108,2119,2130,2142,2154,2165,2177,2189,2200,2209,2216,2222,2226,2230,2232,2234,2235,2235,2235,2236,2235,2236,2238,2240,2242,2246,2249,2255,2264,2275,2290,2309,2330,2355,2381,2408,2432,2453,2471,2482,2487,2485,2474,2456,2435,2410,2380,2353,2328,2303,2282,2263,2248,2236,2225,2218,2211,2208,2204,2200,2198,2198,2198,2201,2205,2211,2215,2221,2226,2232,2238,2244,2248,2253,2255,2257,2258,2259,2262,2264,2265,2268,2271,2274,2279,2282,2290,2295,2302,2309,2315,2321,2326,2331,2336,2343,2353,2365,2380,2398,2421,2447,2475,2505,2535,2566,2595,2620,2641,2659,2673,2682,2687,2691,2694,2696,2699,2702,2704,2707,2711,2712,2714,2715,2715,2714,2714,2711,2709,2708,2706,2704,2703,2702,2700,2698,2697,2695,2692,2688,2686,2684,2680,2677,2675,2673,2672,2671,2670,2671,2672,2670,2670,2670,2670,2670,2670,2669,2668,2667,2666,2663,2663,2662,2663,2668,2677,2689,2705,2722,2743,2764,2787,2809,2828,2844,2857,2864,2866,2865,2862,2856,2849,2841,2834,2827,2821,2816,2811,2806,2801,2796,2790,2783,2777,2769,2763,2758,2752,2747,2742,2737,2731,2726,2722,2715,2710,2703,2698,2692,2687,2681,2676,2672,2670,2666,2666,2665,2664,2663,2663,2662,2661,2660,2659,2658,2658,2655,2653,2650,2649,2647,2650,2655,2664,2677,2693,2711,2731,2751,2773,2795,2814,2829,2841,2848,2851,2849,2844,2838,2832,2826,2818,2811,2805,2800,2794,2788,2783,2777,2771,2765,2760,2755,2750,2745,2740,2736,2731,2725,2718,2709,2697,2686,2672,2656,2639,2622,2604,2587,2570,2556,2543,2531,2521,2512,2505,2502,2500,2500,2500,2502,2505,2510,2518,2529,2544,2564,2585,2608,2633,2659,2685,2709,2732,2753,2767,2778,2785,2788,2787,2786,2782,2779,2775,2770,2765,2760,2755,2750,2745,2741,2734,2729,2724,2718,2710,2705,2698,2692,2684,2677,2668,2659,2650,2643,2633,2626,2620,2617,2612,2610,2609,2611,2610,2613,2615,2620,2623,2627,2630,2632,2635,2641,2647,2658,2670,2687,2704,2727,2749,2772,2795,2819,2838,2855,2867,2877,2879,2882,2879,2875,2871,2867,2863,2860,2856,2854,2850,2848,2844,2842,2838,2835,2829,2827,2821,2819,2814,2810,2806,2803,2796,2790,2783,2779,2770,2764,2755,2748,2741,2734,2726,2721,2714,2709,2703,2699,2693,2689,2685,2681,2678,2679,2682,2690,2699,2713,2728,2748,2767,2788,2805,2824,2839,2851,2857,2860,2858,2855,2847,2838,2826,2814,2800,2787,2770,2755,2737,2722,2700,2681,2659,2638,2616,2597,2577,2559,2540,2524,2506,2491,2475,2463,2449,2441,2431,2425,2419,2416,2415,2417,2420,2426,2431,2439,2443,2452,2456,2462,2466,2471,2474,2481,2491,2504,2521,2542,2565,2592,2618,2647,2675,2704,2727,2748,2764,2777,2786,2791,2793,2798,2800,2802,2801,2802,2800,2799,2797,2794,2789,2785,2778,2773,2765,2760,2752,2747,2741,2735,2728,2722,2714,2707,2699,2691,2683,2675,2665,2657,2649,2645,2637,2631,2624,2618,2613,2609,2604,2601,2596,2592,2588,2586,2586,2591,2598,2609,2623,2642,2662,2685,2709,2732,2754,2773,2788,2800,2807,2812,2814,2814,2813,2810,2807,2803,2800,2798,2795,2792,2790,2787,2783,2778,2773,2770,2767,2765,2762,2758,2753,2748,2743,2737,2732,2726,2719,2711,2704,2698,2693,2687,2682,2676,2672,2667,2663,2659,2658,2654,2651,2649,2649,2652,2659,2670,2683,2699,2716,2734,2756,2774,2792,2807,2820,2827,2830,2831,2830,2825,2821,2813,2807,2800,2793,2785,2777,2770,2763,2752,2745,2736,2728,2720,2712,2704,2700,2695,2689,2684,2680,2673,2668,2662,2656,2648,2642,2633,2628,2622,2616,2610,2607,2600,2596,2591,2589,2584,2581,2578,2575,2572,2572,2573,2578,2586,2601,2616,2637,2658,2683,2705,2730,2750,2770,2783,2794,2799,2801,2799,2796,2791,2787,2782,2778,2771,2766,2758,2753,2745,2738,2728,2720,2710,2702,2692,2686,2677,2674,2666,2662,2656,2652,2646,2642,2634,2630,2623,2618,2611,2608,2602,2598,2594,2592,2587,2586,2583,2582,2579,2578,2576,2575,2573,2571,2569,2569,2568,2573,2578,2592,2605,2624,2643,2667,2690,2716,2739,2761,2778,2792,2800,2806,2804,2804,2799,2795,2788,2784,2777,2774,2768,2764,2756,2752,2746,2740,2732,2727,2720,2716,2708,2704,2699,2695,2689,2685,2678,2674,2667,2662,2653,2647,2639,2634,2628,2623,2615,2612,2604,2600,2594,2591,2588,2586,2583,2581,2580,2583,2581,2583,2582,2585,2588,2594,2602,2618,2634,2654,2675,2700,2725,2752,2773,2793,2808,2821,2826,2830,2827,2824,2817,2811,2803,2796,2788,2783,2775,2771,2763,2757,2751,2744,2736,2731,2725,2719,2712,2708,2701,2695,2690,2684,2678,2671,2663,2656,2649,2642,2635,2629,2623,2618,2612,2606,2602,2600,2596,2594,2592,2589,2586,2584,2581,2579,2578,2579,2583,2593,2606,2622,2643,2665,2688,2711,2734,2755,2774,2789,2796,2801,2802,2800,2796,2790,2783,2776,2769,2762,2756,2750,2744,2738,2733,2726,2720,2715,2710,2706,2701,2697,2694,2690,2685,2679,2675,2669,2663,2656,2651,2644,2638,2631,2627,2622,2619,2615,2614,2611,2609,2605,2604,2602,2600,2596,2595,2593,2594,2597,2606,2615,2632,2653,2676,2701,2729,2755,2781,2803,2823,2837,2848,2853,2854,2850,2845,2838,2832,2825,2819,2813,2807,2800,2795,2788,2783,2775,2768,2760,2754,2745,2739,2733,2727,2720,2715,2708,2701,2692,2685,2676,2669,2660,2653,2645,2639,2631,2625,2619,2616,2611,2609,2606,2603,2599,2597,2593,2593,2589,2588,2585,2586,2589,2598,2610,2629,2649,2675,2698,2728,2753,2779,2800,2821,2833,2844,2845,2847,2842,2838,2830,2823,2817,2813,2807,2801,2793,2789,2782,2776,2768,2761,2753,2746,2737,2730,2721,2715,2706,2700,2692,2686,2677,2671,2662,2653,2644,2639,2631,2626,2618,2613,2607,2605,2599,2597,2593,2591,2588,2586,2584,2584,2580,2579,2576,2577,2580,2589,2599,2615,2634,2658,2682,2711,2737,2764,2788,2809,2822,2835,2839,2841,2837,2832,2825,2822,2815,2811,2804,2801,2793,2789,2781,2779,2771,2765,2756,2749,2740,2732,2723,2719,2710,2704,2694,2688,2681,2674,2665,2658,2650,2644,2634,2630,2623,2618,2611,2608,2602,2599,2594,2592,2587,2586,2581,2579,2576,2574,2571,2573,2576,2585,2598,2614,2635,2662,2687,2716,2744,2771,2795,2815,2830,2839,2845,2844,2838,2834,2825,2818,2810,2802,2793,2786,2778,2772,2766,2760,2753,2748,2740,2734,2729,2725,2721,2717,2711,2707,2703,2697,2689,2684,2678,2673,2666,2661,2655,2649,2642,2637,2632,2630,2626,2621,2617,2614,2610,2606,2605,2606,2609,2615,2625,2640,2658,2679,2701,2724,2749,2773,2792,2808,2819,2826,2828,2826,2822,2816,2808,2799,2790,2780,2772,2764,2756,2749,2743,2736,2730,2724,2718,2711,2708,2703,2698,2692,2686,2678,2670,2661,2651,2639,2629,2619,2611,2600,2593,2585,2578,2571,2567,2563,2560,2556,2552,2547,2545,2543,2543,2546,2553,2564,2581,2601,2625,2651,2680,2706,2733,2758,2780,2795,2807,2811,2811,2807,2801,2792,2785,2775,2765,2754,2744,2734,2727,2718,2711,2701,2693,2683,2677,2670,2665,2659,2655,2649,2646,2640,2637,2631,2628,2621,2618,2613,2610,2603,2600,2595,2592,2589,2588,2586,2585,2582,2582,2579,2580,2578,2580,2580,2586,2594,2609,2625,2648,2673,2702,2731,2761,2789,2818,2840,2858,2868,2875,2876,2877,2872,2868,2860,2854,2844,2837,2828,2821,2810,2801,2789,2780,2767,2757,2744,2735,2723,2715,2705,2698,2690,2683,2673,2667,2657,2651,2642,2635,2626,2621,2614,2610,2604,2603,2598,2596,2594,2595,2594,2596,2595,2596,2593,2593,2590,2593,2596,2603,2613,2628,2646,2669,2694,2722,2748,2777,2799,2821,2836,2848,2854,2855,2853,2849,2844,2840,2833,2829,2822,2817,2811,2807,2800,2794,2787,2780,2773,2768,2761,2758,2753,2751,2746,2743,2737,2732,2726,2719,2709,2701,2691,2681,2669,2659,2649,2642,2633,2627,2618,2612,2604,2599,2593,2588,2581,2576,2569,2563,2557,2551,2547,2547,2550,2557,2570,2589,2612,2639,2669,2700,2731,2762,2788,2808,2823,2833,2835,2835,2830,2823,2815,2806,2795,2787,2779,2772,2764,2758,2751,2744,2736,2728,2721,2714,2707,2700,2692,2686,2680,2672,2664,2658,2651,2644,2636,2628,2619,2611,2604,2598,2593,2588,2583,2578,2575,2572,2569,2567,2566,2564,2561,2558,2558,2561,2568,2581,2597,2619,2644,2671,2700,2730,2762,2788,2810,2827,2837,2842,2843,2838,2831,2823,2813,2802,2791,2782,2774,2764,2756,2749,2742,2733,2726,2719,2715,2708,2703,2696,2691,2685,2679,2670,2663,2654,2646,2636,2627,2619,2611,2602,2596,2591,2587,2582,2578,2574,2571,2567,2564,2562,2561,2560,2563,2569,2582,2600,2624,2651,2682,2713,2746,2778,2807,2833,2854,2867,2875,2876,2873,2866,2859,2851,2843,2834,2826,2817,2809,2800,2794,2787,2780,2771,2762,2754,2746,2739,2733,2725,2719,2710,2703,2695,2687,2678,2669,2659,2647,2637,2629,2620,2612,2604,2598,2590,2584,2578,2573,2569,2564,2559,2558,2555,2559,2568,2583,2601,2627,2656,2688,2722,2757,2791,2822,2847,2867,2879,2888,2889,2887,2882,2875,2868,2860,2849,2843,2834,2826,2817,2809,2799,2789,2776,2766,2755,2745,2734,2725,2716,2707,2700,2692,2683,2675,2666,2658,2648,2640,2631,2623,2615,2607,2600,2593,2586,2581,2576,2573,2569,2566,2563,2560,2558,2559,2564,2574,2589,2609,2633,2660,2690,2722,2754,2785,2813,2837,2853,2864,2871,2873,2872,2868,2863,2857,2852,2845,2838,2831,2824,2815,2806,2796,2785,2774,2763,2750,2738,2727,2717,2708,2698,2690,2680,2672,2663,2652,2643,2634,2624,2616,2606,2599,2592,2585,2578,2572,2568,2564,2559,2553,2547,2544,2540,2535,2533,2533,2538,2548,2564,2586,2612,2642,2673,2703,2735,2761,2785,2803,2813,2817,2815,2810,2801,2791,2781,2770,2759,2750,2742,2735,2728,2722,2714,2707,2700,2693,2686,2679,2673,2669,2664,2659,2655,2650,2645,2639,2633,2627,2621,2614,2607,2599,2593,2587,2581,2576,2570,2566,2562,2560,2556,2552,2550,2548,2545,2543,2544,2549,2558,2573,2593,2618,2648,2681,2715,2751,2785,2816,2843,2864,2878,2885,2887,2884,2878,2871,2864,2854,2846,2837,2829,2821,2814,2807,2799,2792,2784,2776,2767,2759,2751,2744,2737,2729,2719,2711,2701,2690,2680,2669,2659,2649,2639,2630,2621,2615,2607,2601,2595,2589,2584,2578,2572,2568,2566,2568,2573,2583,2600,2622,2648,2677,2707,2738,2767,2794,2816,2832,2843,2849,2848,2844,2836,2826,2813,2802,2790,2777,2766,2757,2747,2739,2730,2722,2715,2710,2703,2699,2693,2689,2683,2677,2669,2661,2652,2642,2631,2621,2610,2602,2591,2584,2575,2568,2561,2556,2551,2547,2542,2539,2536,2536,2540,2550,2563,2586,2611,2640,2673,2708,2742,2776,2806,2831,2850,2863,2869,2871,2868,2863,2855,2849,2839,2832,2823,2815,2806,2798,2790,2785,2780,2780,2785,2798,2813,2835,2860,2888,2915,2941,2965,2984,2996,3001,2999,2993,2980,2965,2946,2929,2909,2890,2872,2855,2837,2819,2797,2776,2754,2733,2712,2697,2685,2678,2676,2679,2685,2696,2706,2717,2728,2737,2740,2740,2737,2731,2722,2711,2699,2689,2677,2667,2656,2648,2637,2628,2616,2604,2592,2583,2572,2563,2553,2546,2538,2532,2525,2521,2514,2510,2496,2485,2480,2472,2466,2458,2453,2447,2445,2440,2437,2435,2433,2431,2430,2429,2428,2427,2430,2432,2442,2456,2475,2501,2531,2564,2600,2638,2675,2708,2741,2767,2787,2800,2807,2809,2808,2803,2799,2793,2787,2780,2773,2764,2755,2747,2737,2726,2715,2703,2691,2678,2666,2655,2646,2638,2630,2622,2615,2607,2599,2590,2583,2576,2568,2562,2555,2548,2541,2536,2532,2528,2525,2521,2518,2516,2513,2510,2507,2506,2506,2509,2516,2530,2551,2578,2610,2644,2682,2722,2762,2799,2832,2859,2879,2893,2898,2899,2897,2891,2884,2874,2864,2854,2843,2833,2821,2810,2799,2787,2775,2763,2752,2741,2731,2722,2714,2703,2688,2682,2672,2662,2653,2643,2633,2622,2612,2602,2595,2588,2581,2574,2567,2561,2556,2551,2548,2546,2546,2550,2559,2571,2591,2616,2644,2672,2704,2735,2765,2792,2816,2832,2844,2849,2849,2845,2839,2830,2822,2811,2802,2791,2784,2776,2769,2763,2758,2751,2746,2739,2736,2730,2727,2720,2715,2707,2700,2690,2681,2671,2661,2648,2637,2626,2616,2605,2598,2588,2581,2574,2568,2563,2558,2555,2552,2549,2553,2560,2575,2593,2621,2650,2684,2721,2759,2796,2832,2862,2887,2904,2914,2917,2917,2911,2904,2894,2885,2873,2864,2852,2842,2830,2820,2808,2796,2769,2755,2743,2729,2718,2707,2697,2687,2677,2667,2658,2646,2636,2623,2614,2602,2594,2583,2576,2567,2559,2550,2545,2538,2535,2528,2525,2518,2515,2511,2514,2518,2532,2550,2576,2605,2641,2677,2720,2758,2796,2829,2859,2878,2893,2900,2901,2899,2894,2885,2877,2868,2859,2850,2842,2831,2820,2809,2784,2770,2756,2745,2733,2721,2708,2700,2682,2669,2649,2637,2625,2614,2602,2592,2581,2573,2563,2555,2545,2539,2533,2529,2523,2520,2514,2512,2506,2505,2503,2505,2511,2525,2541,2569,2594,2659,2713,2748,2786,2819,2848,2867,2880,2885,2886,2881,2874,2867,2848,2835,2824,2814,2803,2794,2782,2771,2758,2747,2734,2723,2713,2705,2696,2689,2682,2674,2665,2657,2646,2636,2626,2615,2602,2592,2573,2556,2548,2538,2531,2523,2516,2510,2505,2502,2495,2490,2494,2502,2518,2541,2568,2603,2643,2684,2728,2771,2813,2849,2879,2902,2916,2923,2924,2916,2903,2886,2869,2860,2850,2840,2829,2819,2808,2797,2784,2773,2760,2749,2737,2724,2712,2701,2688,2675,2661,2650,2628,2606,2595,2583,2573,2561,2551,2544,2534,2520,2514,2507,2501,2497,2493,2493,2499,2509,2537,2587,2618,2655,2694,2729,2764,2794,2817,2831,2840,2840,2837,2828,2818,2803,2790,2774,2761,2748,2737,2725,2717,2707,2699,2685,2680,2676,2670,2667,2658,2644,2636,2625,2616,2602,2591,2575,2553,2545,2536,2530,2522,2516,2506,2501,2499,2507,2518,2535,2559,2593,2666,2706,2747,2790,2827,2861,2886,2907,2920,2917,2911,2892,2880,2870,2857,2847,2835,2825,2813,2792,2782,2770,2760,2747,2738,2727,2719,2709,2700,2680,2668,2656,2642,2632,2617,2592,2572,2563,2553,2547,2535,2529,2528,2526,2532,2540,2557,10,11,8
2514,2496,2476,2460,2441,2425,2409,2396,2381,2370,2358,2349,2338,2329,2318,2311,2301,2294,2287,2282,2276,2275,2276,2289,2308,2341,2381,2433,2491,2557,2626,2701,2773,2845,2907,2964,3008,3045,3071,3092,3104,3113,3115,3116,3111,3104,3093,3082,3067,3051,3031,3011,2987,2964,2937,2914,2888,2865,2840,2814,2788,2763,2738,2714,2689,2664,2639,2614,2588,2565,2540,2518,2497,2476,2456,2438,2421,2406,2391,2378,2365,2354,2344,2333,2326,2317,2309,2301,2295,2292,2292,2296,2310,2330,2362,2402,2451,2507,2568,2634,2701,2768,2830,2884,2931,2969,2997,3018,3033,3041,3046,3043,3039,3031,3022,3010,2997,2982,2964,2945,2928,2907,2888,2869,2852,2832,2817,2797,2780,2762,2746,2724,2704,2682,2664,2641,2622,2600,2582,2560,2543,2525,2509,2492,2480,2463,2452,2439,2429,2417,2409,2400,2396,2396,2406,2422,2450,2483,2528,2576,2633,2690,2752,2810,2868,2917,2959,2990,3017,3033,3046,3051,3054,3052,3047,3036,3027,3013,2998,2980,2963,2941,2923,2900,2880,2857,2838,2817,2797,2776,2757,2736,2715,2692,2671,2646,2623,2599,2577,2554,2532,2510,2491,2471,2454,2437,2424,2410,2396,2384,2373,2364,2359,2359,2365,2380,2406,2441,2484,2536,2595,2659,2725,2791,2854,2911,2962,3005,3038,3064,3081,3091,3098,3102,3100,3096,3089,3079,3065,3048,3030,3010,2988,2963,2935,2909,2881,2854,2827,2802,2777,2753,2727,2703,2678,2655,2631,2607,2582,2559,2532,2509,2485,2462,2441,2422,2401,2383,2366,2352,2337,2325,2312,2304,2293,2284,2273,2265,2256,2249,2242,2237,2231,2227,2220,2218,2216,2217,2222,2236,2259,2293,2336,2393,2456,2531,2608,2692,2775,2858,2934,3003,3061,3111,3147,3177,3195,3211,3217,3223,3223,3221,3212,3202,3187,3171,3151,3131,3106,3083,3053,3027,2996,2970,2940,2913,2882,2855,2825,2799,2771,2744,2714,2689,2659,2633,2605,2582,2558,2535,2510,2488,2467,2449,2430,2412,2395,2381,2366,2353,2341,2330,2318,2309,2299,2289,2281,2275,2265,2258,2252,2246,2241,2238,2239,2247,2263,2288,2324,2373,2429,2495,2567,2644,2724,2803,2880,2950,3010,3060,3101,3131,3153,3168,3177,3181,3180,3174,3167,3157,3145,3128,3110,3089,3068,3044,3020,2995,2970,2942,2916,2889,2863,2836,2810,2782,2756,2729,2702,2674,2647,2618,2591,2563,2538,2512,2489,2465,2445,2424,2408,2390,2377,2363,2352,2340,2330,2318,2312,2302,2296,2287,2283,2276,2272,2265,2261,2257,2256,2255,2261,2272,2296,2323,2364,2413,2474,2539,2611,2685,2762,2834,2903,2960,3012,3051,3083,3104,3121,3126,3131,3128,3122,3113,3104,3089,3075,3057,3041,3020,3001,2981,2963,2941,2922,2901,2884,2863,2843,2820,2802,2778,2756,2730,2708,2684,2663,2637,2616,2592,2572,2551,2533,2514,2499,2483,2470,2455,2444,2432,2423,2414,2405,2397,2390,2382,2374,2368,2365,2359,2357,2356,2364,2380,2405,2440,2483,2535,2594,2658,2727,2798,2868,2932,2989,3038,3079,3108,3128,3141,3147,3149,3146,3138,3127,3116,3098,3080,3061,3042,3022,3003,2980,2958,2938,2918,2897,2877,2856,2837,2815,2793,2769,2746,2720,2696,2671,2646,2620,2596,2569,2548,2526,2506,2486,2472,2453,2438,2424,2411,2401,2392,2381,2372,2363,2357,2348,2344,2343,2350,2364,2386,2418,2462,2512,2573,2637,2708,2778,2850,2917,2976,3026,3069,3101,3127,3141,3153,3156,3158,3151,3144,3134,3124,3107,3090,3070,3052,3028,3006,2978,2957,2932,2910,2884,2863,2838,2815,2790,2768,2742,2720,2692,2667,2639,2616,2589,2564,2539,2517,2495,2474,2453,2435,2418,2403,2388,2374,2362,2353,2341,2331,2321,2315,2309,2309,2312,2324,2346,2378,2419,2471,2530,2597,2667,2740,2812,2883,2946,3002,3046,3083,3109,3129,3141,3147,3149,3148,3143,3134,3124,3110,3092,3074,3053,3029,3006,2981,2955,2928,2901,2874,2847,2821,2797,2772,2748,2722,2697,2670,2644,2619,2595,2570,2547,2523,2500,2479,2460,2440,2424,2409,2396,2383,2372,2359,2349,2340,2332,2325,2319,2310,2303,2297,2295,2301,2317,2340,2374,2417,2470,2530,2598,2668,2742,2812,2879,2936,2987,3026,3058,3078,3093,3100,3103,3101,3098,3089,3079,3064,3050,3030,3012,2989,2966,2940,2918,2890,2865,2839,2815,2787,2764,2738,2717,2692,2670,2641,2618,2593,2569,2544,2524,2499,2476,2451,2432,2413,2397,2379,2365,2350,2339,2325,2317,2310,2301,2292,2286,2278,2275,2268,2263,2258,2254,2249,2246,2245,2246,2250,2264,2284,2317,2357,2411,2471,2539,2609,2685,2761,2835,2902,2960,3009,3050,3078,3098,3111,3117,3118,3115,3108,3100,3087,3073,3058,3042,3024,3006,2987,2967,2949,2929,2910,2891,2871,2853,2833,2813,2793,2771,2749,2726,2704,2681,2658,2635,2612,2589,2567,2546,2528,2509,2493,2475,2460,2447,2436,2423,2414,2404,2396,2387,2380,2373,2370,2371,2379,2395,2423,2458,2502,2553,2613,2675,2742,2808,2871,2926,2976,3015,3048,3069,3086,3092,3098,3096,3092,3082,3074,3061,3047,3029,3012,2991,2971,2948,2928,2904,2883,2860,2839,2817,2797,2774,2755,2731,2708,2683,2661,2636,2613,2589,2565,2541,2520,2498,2479,2459,2442,2425,2412,2397,2385,2372,2364,2353,2345,2335,2329,2324,2322,2323,2334,2354,2383,2421,2471,2526,2589,2656,2727,2796,2866,2926,2980,3024,3062,3087,3107,3122,3133,3135,3136,3132,3126,3116,3104,3087,3068,3047,3024,2998,2975,2949,2922,2894,2868,2842,2817,2792,2767,2741,2716,2690,2664,2639,2615,2591,2567,2544,2520,2498,2477,2457,2438,2421,2405,2390,2375,2361,2349,2339,2328,2318,2309,2301,2294,2294,2298,2310,2331,2363,2404,2454,2512,2577,2647,2719,2789,2859,2918,2973,3018,3054,3080,3102,3116,3125,3130,3133,3127,3121,3109,3097,3079,3060,3037,3013,2985,2958,2927,2899,2868,2840,2810,2783,2754,2729,2702,2676,2648,2623,2595,2571,2544,2521,2495,2473,2449,2428,2406,2389,2371,2357,2340,2327,2314,2304,2294,2287,2279,2274,2267,2263,2257,2254,2249,2249,2250,2258,2272,2297,2331,2378,2430,2493,2561,2636,2710,2787,2858,2926,2983,3033,3069,3101,3123,3141,3151,3160,3160,3160,3153,3147,3133,3118,3099,3079,3055,3031,3004,2977,2948,2921,2892,2865,2836,2809,2782,2756,2728,2703,2676,2651,2625,2601,2576,2554,2533,2512,2492,2474,2456,2438,2423,2409,2395,2383,2371,2360,2349,2338,2330,2322,2314,2306,2299,2292,2286,2280,2277,2280,2291,2309,2338,2377,2424,2480,2544,2613,2684,2755,2825,2887,2942,2988,3027,3054,3074,3087,3095,3097,3098,3092,3086,3075,3063,3048,3031,3011,2990,2968,2947,2924,2901,2876,2855,2832,2809,2787,2764,2741,2719,2695,2673,2648,2627,2603,2583,2561,2540,2519,2502,2484,2469,2451,2439,2426,2416,2404,2395,2385,2378,2369,2363,2355,2351,2343,2337,2331,2330,2333,2346,2365,2396,2435,2486,2539,2604,2669,2740,2809,2874,2932,2986,3025,3059,3081,3099,3108,3114,3113,3111,3103,3093,3081,3068,3050,3032,3010,2989,2966,2945,2920,2897,2872,2849,2824,2802,2778,2755,2730,2706,2680,2655,2630,2607,2582,2560,2535,2513,2492,2474,2456,2440,2424,2410,2395,2382,2370,2361,2351,2342,2332,2324,2316,2309,2301,2296,2293,2292,2298,2311,2332,2365,2409,2462,2524,2592,2666,2743,2820,2892,2959,3019,3069,3109,3138,3159,3175,3184,3189,3188,3185,3179,3168,3155,3138,3119,3098,3074,3047,3019,2990,2960,2932,2902,2875,2845,2820,2793,2768,2742,2715,2689,2664,2637,2611,2584,2562,2536,2515,2493,2473,2453,2436,2419,2405,2391,2379,2365,2354,2341,2332,2321,2313,2302,2294,2284,2277,2269,2264,2257,2253,2248,2245,2239,2237,2234,2235,2232,2232,2229,2232,2233,2242,2256,2283,2319,2367,2423,2493,2567,2652,2738,2830,2916,3000,3073,3137,3188,3229,3261,3286,3300,3311,3315,3315,3310,3305,3294,3283,3265,3246,3223,3201,3172,3144,3113,3083,3051,3021,2987,2957,2925,2895,2864,2834,2805,2776,2745,2716,2688,2662,2635,2611,2585,2563,2539,2517,2498,2479,2461,2444,2428,2412,2397,2385,2372,2361,2351,2340,2330,2319,2310,2302,2293,2285,2277,2270,2264,2258,2252,2247,2245,2243,2242,2244,2252,2265,2285,2319,2366,2422,2488,2560,2638,2718,2800,2879,2955,3022,3077,3118,3154,3175,3192,3201,3208,3207,3204,3196,3186,3172,3157,3138,3120,3099,3076,3049,3025,2997,2972,2944,2921,2894,2869,2841,2815,2786,2762,2733,2709,2681,2656,2626,2603,2577,2555,2531,2511,2489,2472,2453,2437,2421,2409,2395,2384,2373,2363,2353,2346,2336,2329,2321,2316,2308,2303,2297,2294,2288,2287,2283,2285,2292,2308,2332,2367,2409,2464,2525,2595,2665,2741,2815,2885,2950,3006,3049,3085,3109,3129,3137,3142,3140,3135,3128,3116,3101,3088,3070,3052,3030,3012,2990,2971,2951,2930,2910,2892,2871,2852,2831,2811,2789,2769,2745,2721,2697,2673,2648,2624,2601,2580,2557,2537,2518,2500,2483,2468,2454,2441,2431,2421,2412,2406,2397,2390,2384,2379,2377,2382,2393,2411,2442,2480,2528,2583,2645,2711,2782,2848,2912,2970,3021,3061,3092,3114,3129,3136,3139,3136,3132,3122,3112,3098,3082,3062,3043,3021,3001,2979,2956,2931,2911,2888,2867,2845,2824,2801,2781,2756,2734,2708,2687,2658,2633,2607,2584,2559,2537,2513,2494,2474,2456,2436,2422,2407,2396,2384,2374,2362,2354,2344,2337,2329,2324,2318,2315,2315,2324,2342,2370,2406,2456,2513,2578,2649,2725,2802,2878,2947,3011,3062,3104,3135,3162,3178,3189,3192,3193,3188,3183,3172,3162,3147,3131,3110,3089,3064,3040,3013,2985,2957,2931,2901,2875,2847,2821,2792,2767,2739,2713,2686,2660,2632,2607,2580,2555,2528,2506,2481,2461,2442,2423,2404,2389,2372,2359,2347,2337,2326,2318,2309,2301,2292,2285,2278,2273,2267,2263,2259,2261,2268,2282,2307,2343,2390,2447,2513,2584,2662,2742,2821,2898,2970,3030,3081,3121,3152,3175,3192,3201,3206,3207,3205,3197,3187,3174,3156,3136,3117,3092,3067,3038,3009,2979,2951,2921,2893,2866,2838,2807,2782,2754,2729,2699,2672,2643,2616,2587,2562,2534,2514,2487,2466,2446,2427,2408,2394,2378,2364,2352,2342,2330,2321,2310,2302,2292,2286,2278,2274,2274,2279,2291,2315,2347,2390,2440,2503,2567,2641,2711,2784,2850,2914,2966,3013,3048,3076,3092,3107,3110,3115,3112,3108,3097,3087,3071,3053,3032,3012,2986,2963,2936,2910,2883,2860,2829,2805,2779,2755,2730,2708,2682,2659,2633,2608,2581,2558,2535,2513,2490,2469,2448,2430,2411,2397,2380,2367,2354,2342,2331,2321,2310,2302,2296,2289,2280,2275,2269,2266,2267,2275,2291,2319,2354,2398,2452,2514,2582,2654,2727,2799,2866,2924,2973,3014,3045,3067,3082,3090,3094,3092,3088,3080,3069,3054,3041,3023,3005,2984,2964,2942,2919,2897,2877,2856,2837,2814,2793,2771,2751,2728,2707,2684,2663,2639,2616,2593,2572,2551,2533,2512,2497,2478,2465,2449,2436,2424,2414,2404,2396,2384,2377,2367,2362,2355,2357,2362,2378,2401,2435,2478,2532,2588,2653,2718,2786,2849,2909,2959,3004,3034,3059,3073,3084,3086,3087,3081,3076,3065,3054,3036,3021,3002,2984,2960,2939,2915,2894,2871,2851,2827,2809,2787,2767,2745,2726,2704,2683,2661,2638,2614,2594,2570,2550,2527,2510,2489,2473,2456,2443,2428,2418,2404,2394,2384,2376,2366,2362,2361,2368,2382,2406,2439,2484,2534,2592,2653,2718,2782,2844,2900,2950,2990,3021,3042,3057,3066,3071,3072,3070,3066,3058,3048,3037,3022,3006,2988,2968,2946,2923,2900,2876,2852,2828,2805,2783,2761,2738,2716,2696,2675,2653,2631,2609,2589,2567,2548,2528,2510,2491,2474,2457,2443,2427,2414,2401,2391,2379,2369,2358,2349,2339,2334,2325,2318,2311,2305,2298,2292,2286,2284,2279,2279,2281,2293,2312,2345,2386,2441,2501,2571,2640,2716,2789,2860,2923,2978,3021,3054,3074,3090,3096,3100,3097,3093,3087,3081,3070,3059,3045,3032,3015,2998,2977,2959,2937,2917,2893,2873,2850,2830,2808,2789,2768,2749,2730,2709,2689,2671,2649,2632,2612,2595,2577,2562,2544,2528,2513,2500,2486,2475,2462,2453,2441,2433,2422,2414,2407,2400,2391,2385,2376,2369,2363,2357,2349,2344,2337,2332,2326,2322,2317,2316,2313,2314,2317,2330,2350,2383,2427,2480,2542,2610,2681,2756,2828,2897,2958,3011,3051,3079,3094,3102,3103,3099,3090,3080,3070,3058,3044,3030,3015,3001,2985,2968,2951,2933,2914,2894,2875,2857,2838,2819,2801,2783,2765,2746,2728,2709,2691,2672,2654,2636,2620,2601,2586,2570,2556,2539,2525,2513,2501,2489,2479,2467,2458,2448,2440,2432,2426,2416,2409,2401,2395,2388,2382,2375,2370,2363,2359,2352,2350,2346,2347,2349,2362,2383,2419,2460,2516,2575,2641,2708,2780,2847,2911,2966,3011,3041,3062,3069,3072,3067,3058,3045,3033,3017,3002,2986,2970,2952,2937,2919,2904,2886,2873,2856,2842,2825,2812,2797,2784,2769,2755,2740,2726,2708,2693,2675,2660,2640,2626,2608,2594,2578,2563,2549,2537,2523,2513,2503,2496,2486,2481,2473,2469,2464,2459,2454,2449,2444,2439,2434,2434,2438,2452,2474,2508,2550,2601,2655,2716,2777,2838,2896,2947,2990,3022,3041,3052,3054,3050,3041,3031,3019,3005,2990,2975,2960,2945,2929,2913,2897,2881,2866,2850,2834,2818,2802,2787,2773,2758,2744,2728,2713,2696,2678,2661,2644,2627,2611,2593,2577,2560,2545,2529,2517,2505,2495,2484,2475,2466,2459,2450,2444,2438,2433,2427,2421,2414,2410,2404,2401,2396,2393,2391,2395,2404,2425,2456,2500,2551,2610,2673,2743,2812,2883,2945,3002,3047,3082,3101,3113,3117,3116,3108,3100,3088,3077,3063,3051,3036,3023,3007,2991,2971,2955,2934,2914,2893,2875,2855,2837,2818,2801,2781,2766,2747,2730,2710,2696,2677,2660,2641,2626,2608,2592,2575,2559,2543,2530,2515,2504,2491,2480,2468,2461,2451,2443,2436,2429,2420,2414,2406,2400,2393,2388,2381,2376,2369,2365,2360,2358,2355,2355,2357,2370,2391,2424,2468,2524,2587,2656,2728,2805,2879,2950,3010,3060,3098,3124,3137,3143,3141,3135,3126,3113,3100,3087,3074,3059,3044,3028,3012,2995,2976,2956,2937,2917,2897,2877,2858,2838,2819,2801,2783,2764,2747,2727,2708,2689,2669,2649,2630,2611,2593,2574,2557,2539,2525,2509,2497,2485,2476,2464,2454,2444,2436,2427,2420,2411,2405,2396,2388,2380,2374,2366,2362,2354,2349,2343,2340,2335,2332,2328,2331,2333,2347,2368,2404,2448,2507,2571,2643,2718,2797,2874,2950,3015,3070,3111,3142,3157,3166,3164,3161,3151,3140,3125,3111,3093,3078,3061,3045,3026,3009,2988,2969,2946,2928,2906,2888,2867,2847,2827,2808,2787,2770,2748,2731,2709,2689,2666,2647,2624,2605,2583,2564,2544,2529,2510,2496,2480,2468,2454,2443,2432,2423,2413,2405,2397,2390,2383,2378,2370,2366,2359,2354,2349,2345,2338,2334,2329,2325,2320,2317,2315,2315,2320,2332,2355,2389,2435,2491,2555,2627,2703,2781,2860,2934,3000,3056,3099,3128,3147,3156,3156,3150,3140,3127,3112,3096,3080,3063,3045,3028,3010,2991,2972,2954,2936,2917,2899,2880,2863,2844,2827,2808,2790,2770,2751,2731,2711,2689,2668,2647,2627,2606,2587,2567,2550,2532,2517,2501,2490,2478,2470,2459,2452,2443,2439,2432,2429,2422,2419,2413,2408,2404,2400,2393,2390,2384,2385,2388,2397,2416,2449,2490,2542,2600,2667,2736,2808,2877,2944,3002,3051,3087,3113,3126,3132,3130,3125,3114,3102,3086,3071,3053,3036,3016,2998,2977,2958,2937,2917,2897,2879,2859,2842,2823,2808,2790,2774,2755,2736,2715,2694,2672,2650,2628,2606,2582,2562,2540,2519,2499,2483,2466,2452,2439,2427,2415,2406,2397,2389,2382,2375,2369,2365,2360,2356,2351,2348,2346,2343,2340,2339,2340,2345,2355,2375,2406,2450,2504,2566,2637,2715,2794,2875,2953,3025,3087,3138,3175,3200,3216,3223,3223,3219,3212,3201,3189,3175,3159,3142,3125,3105,3084,3063,3039,3016,2992,2968,2944,2919,2896,2872,2849,2825,2802,2777,2753,2728,2704,2679,2655,2630,2607,2584,2563,2540,2520,2499,2482,2463,2449,2434,2422,2409,2399,2387,2379,2370,2364,2355,2350,2342,2335,2327,2322,2315,2310,2303,2299,2294,2292,2289,2291,2297,2311,2335,2374,2423,2485,2553,2629,2709,2795,2878,2959,3032,3096,3143,3182,3207,3224,3233,3236,3232,3226,3217,3207,3193,3180,3162,3143,3123,3104,3080,3057,3032,3006,2979,2954,2927,2902,2876,2851,2826,2801,2774,2750,2724,2699,2673,2648,2624,2600,2575,2553,2532,2513,2493,2476,2457,2442,2427,2413,2400,2389,2377,2367,2356,2347,2338,2330,2322,2316,2308,2301,2295,2290,2283,2279,2274,2269,2266,2266,2272,2285,2308,2344,2390,2449,2516,2590,2670,2752,2836,2913,2984,3045,3095,3133,3160,3176,3184,3186,3185,3179,3171,3160,3147,3131,3115,3094,3075,3053,3031,3007,2984,2958,2934,2909,2885,2860,2837,2812,2788,2761,2736,2711,2685,2658,2634,2609,2584,2559,2537,2514,2494,2473,2455,2438,2423,2407,2394,2381,2370,2359,2350,2340,2332,2324,2316,2309,2303,2295,2291,2285,2280,2277,2279,2287,2304,10,4,3
2601,2570,2558,2552,2557,2570,2588,2643,2674,2734,2769,2789,2806,2819,2819,2815,2810,2792,2778,2767,2756,2742,2729,2717,2706,2688,2669,2661,2653,2638,2623,2614,2600,2586,2570,2554,2529,2491,2456,2425,2402,2391,2379,2367,2355,2344,2328,2326,2328,2338,2361,2387,2423,2465,2514,2562,2614,2663,2710,2751,2787,2810,2839,2844,2839,2836,2818,2802,2790,2777,2764,2750,2739,2722,2702,2691,2686,2681,2672,2658,2649,2633,2617,2599,2579,2563,2543,2534,2525,2511,2497,2490,2483,2477,2473,2473,2477,2490,2507,2532,2565,2604,2651,2745,2791,2838,2912,2956,2967,2969,2969,2964,2955,2943,2916,2902,2888,2874,2861,2849,2825,2809,2800,2790,2784,2770,2757,2748,2739,2718,2701,2689,2676,2653,2629,2620,2602,2581,2571,2561,2544,2522,2513,2517,2526,2543,2568,2598,2634,2674,2715,2757,2797,2835,2866,2891,2907,2916,2916,2908,2899,2885,2872,2855,2840,2806,2786,2772,2758,2734,2724,2716,2711,2704,2701,2694,2689,2683,2674,2661,2651,2638,2624,2608,2595,2580,2567,2546,2523,2513,2503,2498,2496,2510,2542,2572,2609,2646,2706,2795,2834,2874,2907,2931,2949,2958,2963,2959,2955,2943,2915,2903,2887,2876,2860,2848,2832,2821,2810,2791,2783,2774,2755,2747,2734,2726,2702,2684,2672,2657,2645,2633,2623,2612,2602,2591,2583,2577,2576,2580,2590,2607,2631,2660,2693,2730,2769,2808,2843,2875,2899,2916,2924,2926,2920,2911,2896,2879,2859,2841,2820,2804,2785,2772,2756,2743,2731,2723,2710,2704,2696,2692,2685,2680,2673,2667,2658,2647,2632,2620,2607,2593,2577,2560,2544,2528,2512,2497,2482,2470,2459,2452,2449,2456,2471,2494,2524,2561,2604,2649,2697,2743,2787,2825,2856,2877,2892,2899,2900,2895,2888,2876,2865,2850,2839,2822,2811,2796,2783,2770,2759,2747,2741,2732,2727,2719,2717,2712,2707,2701,2684,2674,2660,2649,2622,2601,2590,2575,2563,2549,2538,2529,2523,2514,2511,2514,2522,2538,2560,2589,2624,2664,2706,2748,2789,2831,2865,2893,2911,2926,2930,2922,2916,2903,2890,2874,2860,2844,2830,2812,2801,2786,2774,2761,2749,2736,2730,2719,2712,2704,2697,2685,2676,2652,2637,2606,2589,2573,2559,2545,2532,2519,2509,2498,2489,2482,2477,2475,2480,2492,2511,2537,2568,2604,2646,2690,2733,2776,2814,2849,2876,2896,2907,2914,2913,2910,2897,2878,2867,2852,2839,2823,2811,2796,2784,2771,2760,2748,2740,2729,2723,2712,2706,2695,2685,2674,2649,2636,2620,2593,2581,2569,2558,2550,2533,2524,2515,2509,2505,2504,2505,2514,2530,2553,2581,2616,2654,2696,2735,2794,2857,2878,2897,2909,2910,2904,2899,2878,2850,2833,2802,2786,2770,2754,2738,2712,2702,2693,2683,2678,2669,2663,2651,2644,2631,2620,2605,2590,2575,2563,2546,2535,2513,2498,2490,2474,2468,2473,2478,2493,2513,2540,2570,2604,2639,2675,2711,2744,2771,2794,2807,2813,2815,2810,2805,2788,2766,2755,2732,2707,2696,2683,2672,2663,2657,2648,2645,2642,2643,2639,2638,2636,2636,2632,2628,2619,2613,2604,2597,2583,2573,2559,2549,2534,2524,2513,2507,2502,2505,2513,2531,2556,2587,2621,2660,2698,2738,2774,2807,2834,2856,2871,2877,2877,2872,2864,2851,2836,2820,2801,2782,2765,2747,2732,2718,2710,2699,2693,2686,2683,2678,2675,2666,2662,2652,2644,2629,2617,2602,2589,2574,2562,2549,2543,2532,2524,2513,2508,2500,2496,2494,2499,2509,2529,2551,2583,2618,2658,2699,2743,2783,2819,2851,2875,2891,2901,2903,2900,2894,2884,2872,2858,2847,2832,2819,2804,2792,2771,2749,2738,2725,2713,2691,2681,2672,2658,2648,2635,2623,2608,2596,2582,2571,2556,2546,2534,2527,2516,2507,2498,2491,2484,2482,2483,2491,2505,2527,2552,2587,2619,2693,2753,2787,2821,2849,2870,2884,2893,2895,2893,2887,2878,2867,2854,2842,2829,2817,2802,2787,2773,2761,2747,2733,2714,2705,2697,2686,2678,2668,2658,2645,2634,2618,2606,2589,2575,2559,2545,2531,2520,2507,2497,2484,2476,2466,2463,2463,2471,2484,2505,2530,2563,2602,2637,2716,2771,2804,2835,2858,2874,2883,2886,2879,2869,2858,2844,2829,2814,2800,2784,2771,2756,2744,2724,2703,2696,2687,2681,2671,2664,2652,2643,2632,2622,2609,2599,2585,2573,2560,2551,2538,2530,2519,2512,2501,2493,2485,2482,2482,2505,2531,2558,2593,2630,2669,2709,2748,2782,2812,2833,2851,2859,2852,2845,2834,2822,2808,2794,2779,2762,2747,2731,2717,2705,2694,2683,2674,2666,2661,2654,2652,2648,2645,2640,2636,2626,2618,2607,2598,2583,2572,2558,2546,2531,2518,2502,2494,2484,2480,2480,2491,2508,2533,2564,2602,2642,2686,2727,2768,2805,2837,2862,2879,2888,2890,2887,2881,2871,2857,2844,2830,2813,2796,2781,2766,2753,2742,2733,2724,2719,2713,2710,2707,2705,2701,2696,2687,2679,2665,2652,2633,2615,2594,2575,2556,2538,2521,2506,2491,2484,2481,2488,2501,2526,2555,2593,2632,2676,2720,2767,2809,2848,2880,2904,2916,2924,2923,2918,2909,2897,2882,2867,2850,2833,2816,2800,2785,2770,2757,2744,2734,2724,2716,2709,2704,2697,2692,2686,2679,2668,2660,2647,2634,2618,2604,2586,2572,2555,2541,2526,2507,2508,2513,2530,2551,2583,2620,2663,2708,2757,2804,2850,2888,2922,2945,2962,2969,2969,2962,2953,2940,2925,2908,2892,2874,2856,2838,2822,2807,2793,2782,2762,2744,2736,2725,2718,2707,2697,2686,2674,2661,2649,2634,2621,2607,2594,2579,2569,2557,2547,2535,2528,2522,2526,2534,2553,2576,2609,2644,2687,2730,2776,2821,2864,2899,2930,2949,2962,2969,2963,2955,2943,2929,2912,2896,2877,2859,2841,2823,2805,2788,2771,2755,2743,2731,2721,2712,2703,2694,2683,2670,2659,2644,2629,2612,2597,2577,2561,2543,2528,2511,2498,2485,2474,2468,2466,2468,2483,2502,2531,2564,2606,2649,2697,2742,2788,2828,2865,2893,2913,2925,2931,2931,2928,2919,2911,2899,2887,2872,2856,2839,2824,2806,2788,2770,2753,2736,2719,2705,2691,2680,2667,2655,2642,2632,2619,2608,2596,2587,2574,2563,2550,2539,2527,2517,2504,2495,2483,2473,2465,2460,2460,2470,2487,2513,2542,2582,2623,2669,2714,2760,2802,2839,2868,2888,2906,2905,2898,2887,2875,2861,2846,2831,2815,2798,2784,2769,2755,2742,2730,2719,2710,2703,2694,2686,2679,2671,2662,2653,2641,2629,2614,2600,2583,2570,2556,2543,2529,2519,2507,2498,2488,2482,2476,2478,2484,2498,2516,2544,2573,2609,2645,2685,2720,2756,2784,2807,2821,2830,2830,2827,2819,2807,2792,2778,2762,2749,2735,2721,2708,2695,2683,2672,2663,2655,2649,2643,2636,2629,2623,2613,2604,2593,2580,2564,2550,2535,2521,2506,2494,2481,2473,2463,2457,2450,2448,2446,2453,2463,2483,2506,2537,2569,2605,2644,2684,2722,2758,2786,2810,2825,2835,2836,2835,2829,2820,2809,2798,2785,2773,2760,2749,2737,2727,2717,2707,2700,2692,2685,2680,2675,2668,2662,2655,2647,2637,2626,2614,2601,2588,2577,2561,2551,2539,2530,2518,2509,2498,2491,2485,2485,2488,2502,2520,2549,2581,2620,2659,2703,2743,2785,2818,2848,2868,2882,2886,2886,2880,2874,2861,2851,2838,2826,2812,2798,2784,2770,2756,2743,2731,2721,2712,2705,2699,2693,2690,2685,2681,2675,2670,2661,2651,2639,2628,2613,2601,2587,2576,2561,2549,2536,2524,2512,2504,2496,2494,2496,2509,2525,2551,2582,2619,2658,2699,2739,2780,2815,2845,2867,2884,2893,2897,2895,2892,2885,2877,2867,2858,2846,2834,2821,2808,2794,2780,2766,2753,2742,2731,2722,2713,2708,2701,2694,2688,2681,2673,2667,2656,2648,2635,2627,2615,2606,2594,2585,2573,2564,2551,2541,2529,2522,2515,2517,2521,2535,2553,2581,2611,2647,2682,2721,2758,2793,2821,2847,2865,2879,2884,2887,2886,2882,2878,2871,2861,2851,2839,2826,2812,2798,2785,2771,2759,2748,2740,2732,2725,2718,2713,2705,2698,2688,2678,2663,2649,2633,2619,2601,2586,2570,2557,2544,2535,2524,2517,2508,2501,2492,2488,2483,2486,2493,2508,2528,2556,2587,2625,2663,2704,2745,2783,2815,2844,2863,2876,2880,2880,2875,2869,2859,2847,2836,2824,2810,2796,2784,2772,2763,2752,2743,2735,2729,2723,2720,2716,2714,2710,2706,2698,2691,2680,2668,2654,2641,2624,2611,2596,2585,2571,2562,2551,2543,2534,2530,2527,2533,2540,2556,2575,2602,2631,2664,2697,2733,2765,2796,2820,2838,2850,2855,2854,2848,2839,2829,2816,2801,2786,2771,2757,2744,2733,2723,2715,2708,2703,2698,2696,2694,2695,2694,2693,2689,2685,2677,2670,2659,2648,2634,2624,2609,2596,2582,2570,2557,2546,2533,2525,2517,2518,2521,2534,2551,2577,2606,2642,2678,2717,2752,2788,2817,2840,2857,2867,2871,2870,2863,2855,2844,2833,2822,2809,2798,2785,2774,2764,2754,2743,2736,2729,2725,2718,2715,2711,2709,2703,2699,2691,2684,2673,2663,2647,2636,2620,2607,2589,2576,2561,2550,2536,2529,2524,2528,2537,2555,2579,2610,2645,2684,2724,2766,2804,2839,2866,2886,2898,2904,2902,2896,2886,2874,2860,2845,2830,2815,2801,2789,2778,2768,2759,2751,2745,2740,2735,2729,2727,2721,2718,2710,2702,2691,2680,2668,2655,2640,2628,2612,2600,2583,2571,2556,2546,2534,2527,2523,2530,2541,2561,2587,2623,2660,2703,2743,2787,2826,2860,2887,2907,2920,2925,2923,2918,2908,2896,2882,2869,2856,2841,2826,2811,2797,2783,2770,2759,2750,2741,2733,2725,2720,2714,2709,2701,2695,2687,2678,2666,2656,2642,2629,2614,2602,2588,2576,2560,2548,2534,2524,2519,2520,2526,2543,2564,2595,2628,2667,2707,2750,2789,2827,2856,2880,2895,2903,2904,2901,2894,2884,2872,2860,2848,2836,2823,2811,2801,2789,2777,2766,2757,2748,2741,2732,2726,2717,2711,2702,2693,2681,2670,2655,2641,2624,2609,2592,2579,2563,2550,2536,2526,2513,2505,2495,2489,2483,2485,2491,2507,2525,2555,2587,2625,2664,2706,2746,2786,2820,2848,2868,2883,2889,2889,2884,2878,2868,2857,2844,2830,2815,2801,2788,2774,2761,2748,2735,2722,2711,2699,2690,2680,2671,2659,2649,2637,2625,2613,2601,2585,2572,2557,2546,2531,2520,2507,2498,2487,2477,2467,2461,2454,2452,2453,2463,2478,2503,2532,2568,2607,2649,2692,2736,2775,2810,2838,2857,2868,2872,2871,2864,2855,2843,2829,2814,2800,2786,2774,2761,2750,2739,2731,2723,2716,2711,2707,2701,2698,2693,2689,2682,2676,2665,2655,2641,2629,2614,2600,2584,2571,2556,2543,2530,2518,2505,2498,2492,2494,2501,2516,2538,2566,2599,2637,2676,2716,2753,2789,2819,2843,2856,2864,2865,2861,2854,2841,2828,2813,2798,2782,2767,2755,2745,2735,2729,2721,2717,2714,2712,2710,2708,2704,2700,2692,2684,2673,2663,2650,2637,2624,2612,2597,2584,2571,2559,2544,2532,2520,2514,2513,2521,2534,2557,2585,2620,2657,2700,2741,2783,2821,2853,2877,2893,2899,2901,2896,2887,2874,2860,2843,2826,2809,2793,2778,2766,2754,2743,2737,2729,2724,2719,2715,2709,2706,2701,2694,2685,2675,2662,2651,2634,2622,2604,2592,2575,2561,2545,2532,2519,2512,2511,2518,2530,2553,2582,2619,2657,2700,2744,2788,2826,2861,2887,2904,2912,2913,2907,2897,2883,2865,2845,2826,2806,2786,2767,2750,2736,2721,2711,2703,2697,2692,2690,2685,2684,2680,2676,2669,2661,2649,2637,2621,2605,2588,2571,2551,2537,2520,2505,2491,2481,2473,2474,2481,2497,2519,2550,2585,2627,2671,2718,2761,2805,2841,2870,2890,2902,2906,2904,2896,2885,2869,2855,2838,2821,2806,2792,2779,2766,2755,2745,2736,2728,2721,2714,2709,2704,2698,2692,2685,2675,2666,2652,2640,2624,2609,2590,2576,2558,2542,2526,2513,2500,2493,2488,2492,2502,2524,2550,2584,2622,2667,2711,2757,2798,2838,2869,2893,2907,2914,2914,2909,2898,2885,2869,2854,2837,2820,2804,2790,2776,2762,2750,2737,2726,2716,2708,2700,2693,2684,2678,2668,2657,2644,2632,2616,2603,2586,2569,2552,2538,2521,2506,2491,2479,2465,2459,2455,2460,2473,2496,2523,2560,2602,2649,2694,2741,2784,2823,2854,2877,2889,2895,2892,2884,2872,2857,2841,2824,2807,2789,2772,2756,2739,2725,2710,2697,2687,2678,2671,2663,2657,2650,2644,2639,2632,2623,2614,2602,2590,2576,2564,2552,2541,2528,2518,2506,2496,2485,2479,2473,2476,2482,2500,2522,2554,2586,2628,2668,2712,2752,2789,2818,2842,2855,2861,2860,2855,2845,2835,2823,2812,2800,2790,2779,2768,2759,2750,2742,2733,2725,2717,2712,2706,2701,2696,2693,2688,2682,2673,2665,2653,2640,2625,2611,2594,2579,2563,2549,2533,2523,2511,2505,2503,2511,2523,2546,2573,2609,2647,2690,2732,2775,2814,2849,2875,2895,2906,2911,2907,2900,2886,2871,2853,2833,2813,2794,2774,2755,2738,2723,2710,2699,2690,2683,2679,2675,2672,2668,2666,2661,2655,2648,2641,2631,2623,2611,2601,2589,2581,2569,2559,2550,2544,2541,2548,2560,2581,2607,2641,2677,2717,2759,2803,2840,2874,2898,2916,2924,2927,2922,2912,2898,2883,2863,2844,2826,2809,2792,2777,2763,2752,2741,2732,2725,2720,2715,2709,2705,2698,2692,2682,2671,2657,2642,2626,2611,2594,2579,2562,2551,2536,2526,2514,2508,2504,2507,2518,2538,2564,2599,2636,2678,2721,2768,2809,2848,2878,2902,2914,2920,2917,2910,2896,2882,2864,2845,2825,2809,2792,2776,2761,2746,2732,2723,2713,2705,2699,2693,2689,2683,2678,2671,2663,2652,2641,2627,2612,2597,2581,2563,2548,2530,2515,2495,2482,2468,2462,2461,2470,2486,2514,2547,2588,2633,2684,2733,2781,2822,2858,2884,2902,2910,2911,2904,2893,2878,2863,2846,2828,2809,2792,2774,2756,2740,2725,2711,2699,2689,2682,2675,2669,2662,2656,2650,2642,2634,2622,2608,2592,2577,2559,2544,2528,2513,2496,2481,2466,2455,2446,2445,2450,2464,2486,2518,2556,2601,2647,2699,2747,2796,2835,2869,2893,2908,2913,2913,2904,2894,2880,2865,2846,2830,2813,2796,2780,2765,2750,2737,2724,2713,2703,2694,2686,2679,2672,2664,2657,2646,2634,2621,2608,2592,2578,2564,2550,2536,2524,2509,2499,2487,2477,2467,2459,2455,2457,2467,2485,2509,2544,2583,2627,2673,2722,2768,2814,2849,2879,2898,2910,2913,2911,2901,2890,2876,2862,2844,2829,2813,2798,2781,2766,2750,2736,2722,2710,2698,2688,2679,2669,2661,2653,2646,2637,2628,2617,2606,2593,2580,2565,2551,2537,2523,2510,2498,2486,2474,2464,2455,2448,2447,2450,2461,2481,2508,2542,2582,2626,2673,2720,2767,2810,2847,2877,2900,2913,2917,2916,2910,2901,2889,2877,2865,2852,2838,2823,2809,2797,2785,2771,2758,2747,2735,2724,2712,2702,2693,2683,2673,2662,2650,2638,2624,2612,2598,2584,2570,2557,2544,2534,2523,2513,2503,2496,2489,2484,2484,2490,2504,2525,2552,2587,2626,2670,2716,2763,2807,2849,2882,2908,2926,2935,2937,2933,2925,2913,2900,2883,2867,2852,2838,2822,2806,2794,2780,2767,2756,2744,2735,2727,2720,2712,2706,2699,2690,2680,2669,2657,2644,2629,2613,2595,2578,2562,2545,2530,2515,2501,2490,2481,2479,2485,2497,2519,2547,2581,2619,2661,2704,2745,2783,2816,2842,2860,2869,2871,2867,2859,2846,2831,2816,2800,2783,2768,2754,2741,2730,2718,2708,2698,2691,2685,2680,2675,2669,2664,2659,2652,2645,2637,2626,2616,2604,2590,2579,2567,2553,2540,2527,2513,2499,2491,2486,2489,2499,2516,2543,2575,2614,2655,2699,2745,2788,2825,2855,2877,2892,2897,2897,2890,2879,2865,2849,2831,2815,2797,2780,2765,2751,2738,2728,2720,2712,2705,2701,2696,2692,2688,2682,2674,2666,2653,2640,2625,2609,2592,2577,2561,2546,2531,2517,2505,2493,2486,2483,2486,2497,2515,2543,2576,2616,2661,2707,2754,2799,2839,2874,2900,2919,2930,2933,2927,2919,2907,2892,2876,2860,2843,2826,2808,2790,2773,2758,2745,2731,2720,2711,2702,2693,2685,2678,2671,2662,2654,2642,2630,2617,2603,2589,2575,2561,2546,2532,2518,2504,2492,2487,2485,2489,2504,2525,2556,2591,2632,2676,2722,2767,2807,2845,2877,2899,2913,2920,2921,2918,2911,2901,2889,2876,2861,2844,2827,2811,2795,2778,2763,2748,2734,2724,2715,2706,2698,2691,2684,2674,2664,2653,2641,2626,2610,2594,2578,2563,2547,2531,2518,2504,2493,2483,2475,2473,2476,2488,2509,2536,2572,2612,2658,2704,2752,2798,2841,2876,2904,2923,2934,2937,2934,2924,2912,2899,2882,2865,2848,2831,2815,2797,2780,2764,2751,2736,2722,2708,2697,2687,2675,2665,2653,2642,2631,2618,2605,2592,2577,2562,2549,2536,2522,2511,2498,2484,2472,2461,2449,2444,2442,2446,2455,2476,2503,2539,2580,2625,2671,2720,2766,2808,2844,2872,2892,2903,2906,2905,2899,2890,2878,2865,2849,2832,2815,2798,2779,2762,2744,2726,2709,2695,2682,2670,2659,2649,2639,2630,2620,2609,2598,2585,2572,2556,2542,2527,2514,2501,2489,2477,2465,2453,2443,2433,2427,2422,2424,2430,2446,2470,2500,2536,2579,2622,2670,2715,2759,2796,2828,2850,2864,2871,2870,2864,2855,2842,2829,2814,2796,2780,2765,2750,2736,2724,2713,2705,2697,2691,2686,2683,2680,2676,2672,2667,2659,2649,2637,2625,2611,2598,2583,2569,2554,2540,2524,2511,2500,2492,2485,2485,2489,0,2,0
