1,2,3,4,5,6,7,8,9,10,11,12,13,14,15,16,17,18,19,20,21,22,23,24,25,26,27,28,29,30,31,32,33,34,35,36,37,38,39,40,41,42,43,44,45,46,47,48,49,50,51,52,53,54,55,56,57,58,59,60,61,62,63,64,65,66,67,68,69,70,71,72,73,74,75,76,77,78,79,80,81,82,83,84,85,86,87,88,89,90,91,92,93,94,95,96,97,98,99,100,101,102,103,104,105,106,107,108,109,110,111,112,113,114,115,116,117,118,119,120,121,122,123,124,125,126,127,128,129,130,131,132,133,134,135,136,137,138,139,140,141,142,143,144,145,146,147,148,149,150,151,152,153,154,155,156,157,158,159,160,161,162,163,164,165,166,167,168,169,170,171,172,173,174,175,176,177,178,179,180,181,182,183,184,185,186,187,188,189,190,191,192,193,194,195,196,197,198,199,200,201,202,203,204,205,206,207,208,209,210,211,212,213,214,215,216,217,218,219,220,221,222,223,224,225,226,227,228,229,230,231,232,233,234,235,236,237,238,239,240,241,242,243,244,245,246,247,248,249,250,251,252,253,254,255,256,257,258,259,260,261,262,263,264,265,266,267,268,269,270,271,272,273,274,275,276,277,278,279,280,281,282,283,284,285,286,287,288,289,290,291,292,293,294,295,296,297,298,299,300,301,302,303,304,305,306,307,308,309,310,311,312,313,314,315,316,317,318,319,320,321,322,323,324,325,326,327,328,329,330,331,332,333,334,335,336,337,338,339,340,341,342,343,344,345,346,347,348,349,350,351,352,353,354,355,356,357,358,359,360,361,362,363,364,365,366,367,368,369,370,371,372,373,374,375,376,377,378,379,380,381,382,383,384,385,386,387,388,389,390,391,392,393,394,395,396,397,398,399,400,401,402,403,404,405,406,407,408,409,410,411,412,413,414,415,416,417,418,419,420,421,422,423,424,425,426,427,428,429,430,431,432,433,434,435,436,437,438,439,440,441,442,443,444,445,446,447,448,449,450,451,452,453,454,455,456,457,458,459,460,461,462,463,464,465,466,467,468,469,470,471,472,473,474,475,476,477,478,479,480,481,482,483,484,485,486,487,488,489,490,491,492,493,494,495,496,497,498,499,500,501,502,503,504,505,506,507,508,509,510,511,512,513,514,515,516,517,518,519,520,521,522,523,524,525,526,527,528,529,530,531,532,533,534,535,536,537,538,539,540,541,542,543,544,545,546,547,548,549,550,551,552,553,554,555,556,557,558,559,560,561,562,563,564,565,566,567,568,569,570,571,572,573,574,575,576,577,578,579,580,581,582,583,584,585,586,587,588,589,590,591,592,593,594,595,596,597,598,599,600,601,602,603,604,605,606,607,608,609,610,611,612,613,614,615,616,617,618,619,620,621,622,623,624,625,626,627,628,629,630,631,632,633,634,635,636,637,638,639,640,641,642,643,644,645,646,647,648,649,650,651,652,653,654,655,656,657,658,659,660,661,662,663,664,665,666,667,668,669,670,671,672,673,674,675,676,677,678,679,680,681,682,683,684,685,686,687,688,689,690,691,692,693,694,695,696,697,698,699,700,701,702,703,704,705,706,707,708,709,710,711,712,713,714,715,716,717,718,719,720,721,722,723,724,725,726,727,728,729,730,731,732,733,734,735,736,737,738,739,740,741,742,743,744,745,746,747,748,749,750,751,752,753,754,755,756,757,758,759,760,761,762,763,764,765,766,767,768,769,770,771,772,773,774,775,776,777,778,779,780,781,782,783,784,785,786,787,788,789,790,791,792,793,794,795,796,797,798,799,800,801,802,803,804,805,806,807,808,809,810,811,812,813,814,815,816,817,818,819,820,821,822,823,824,825,826,827,828,829,830,831,832,833,834,835,836,837,838,839,840,841,842,843,844,845,846,847,848,849,850,851,852,853,854,855,856,857,858,859,860,861,862,863,864,865,866,867,868,869,870,871,872,873,874,875,876,877,878,879,880,881,882,883,884,885,886,887,888,889,890,891,892,893,894,895,896,897,898,899,900,901,902,903,904,905,906,907,908,909,910,911,912,913,914,915,916,917,918,919,920,921,922,923,924,925,926,927,928,929,930,931,932,933,934,935,936,937,938,939,940,941,942,943,944,945,946,947,948,949,950,951,952,953,954,955,956,957,958,959,960,961,962,963,964,965,966,967,968,969,970,971,972,973,974,975,976,977,978,979,980,981,982,983,984,985,986,987,988,989,990,991,992,993,994,995,996,997,998,999,1000,1001,1002,1003,1004,1005,1006,1007,1008,1009,1010,1011,1012,1013,1014,1015,1016,1017,1018,1019,1020,1021,1022,1023,1024,1025,1026,1027,1028,1029,1030,1031,1032,1033,1034,1035,1036,1037,1038,1039,1040,1041,1042,1043,1044,1045,1046,1047,1048,1049,1050,1051,1052,1053,1054,1055,1056,1057,1058,1059,1060,1061,1062,1063,1064,1065,1066,1067,1068,1069,1070,1071,1072,1073,1074,1075,1076,1077,1078,1079,1080,1081,1082,1083,1084,1085,1086,1087,1088,1089,1090,1091,1092,1093,1094,1095,1096,1097,1098,1099,1100,1101,1102,1103,1104,1105,1106,1107,1108,1109,1110,1111,1112,1113,1114,1115,1116,1117,1118,1119,1120,1121,1122,1123,1124,1125,1126,1127,1128,1129,1130,1131,1132,1133,1134,1135,1136,1137,1138,1139,1140,1141,1142,1143,1144,1145,1146,1147,1148,1149,1150,1151,1152,1153,1154,1155,1156,1157,1158,1159,1160,1161,1162,1163,1164,1165,1166,1167,1168,1169,1170,1171,1172,1173,1174,1175,1176,1177,1178,1179,1180,1181,1182,1183,1184,1185,1186,1187,1188,1189,1190,1191,1192,1193,1194,1195,1196,1197,1198,1199,1200,1201,1202,1203,1204,1205,1206,1207,1208,1209,1210,1211,1212,1213,1214,1215,1216,1217,1218,1219,1220,1221,1222,1223,1224,1225,1226,1227,1228,1229,1230,1231,1232,1233,1234,1235,1236,1237,1238,1239,1240,1241,1242,1243,1244,1245,1246,1247,1248,1249,1250,1251,1252,1253,1254,1255,1256,1257,1258,1259,1260,1261,1262,1263,1264,1265,1266,1267,1268,1269,1270,1271,1272,1273,1274,1275,1276,1277,1278,1279,1280,1281,1282,1283,1284,1285,1286,1287,1288,1289,1290,1291,1292,1293,1294,1295,1296,1297,1298,1299,1300,1301,1302,1303,1304,1305,1306,1307,1308,1309,1310,1311,1312,1313,1314,1315,1316,1317,1318,1319,1320,1321,1322,1323,1324,1325,1326,1327,1328,1329,1330,1331,1332,1333,1334,1335,1336,1337,1338,1339,1340,1341,1342,1343,1344,1345,1346,1347,1348,1349,1350,1351,1352,1353,1354,1355,1356,1357,1358,1359,1360,1361,1362,1363,1364,1365,1366,1367,1368,1369,1370,1371,1372,1373,1374,1375,1376,1377,1378,1379,1380,1381,1382,1383,1384,1385,1386,1387,1388,1389,1390,1391,1392,1393,1394,1395,1396,1397,1398,1399,1400,1401,1402,1403,1404,1405,1406,1407,1408,1409,1410,1411,1412,1413,1414,1415,1416,1417,1418,1419,1420,1421,1422,1423,1424,1425,1426,1427,1428,1429,1430,1431,1432,1433,1434,1435,1436,1437,1438,1439,1440,1441,1442,1443,1444,1445,1446,1447,1448,1449,1450,1451,1452,1453,1454,1455,1456,1457,1458,1459,1460,1461,1462,1463,1464,1465,1466,1467,1468,1469,1470,1471,1472,1473,1474,1475,1476,1477,1478,1479,1480,1481,1482,1483,1484,1485,1486,1487,1488,1489,1490,1491,1492,1493,1494,1495,1496,1497,1498,1499,1500,1501,1502,1503,1504,1505,1506,1507,1508,1509,1510,1511,1512,1513,1514,1515,1516,1517,1518,1519,1520,1521,1522,1523,1524,1525,1526,1527,1528,1529,1530,1531,1532,1533,1534,1535,1536,1537,1538,1539,1540,1541,1542,1543,1544,1545,1546,1547,1548,1549,1550,1551,1552,1553,1554,1555,1556,1557,1558,1559,1560,1561,1562,1563,1564,1565,1566,1567,1568,1569,1570,1571,1572,1573,1574,1575,1576,1577,1578,1579,1580,1581,1582,1583,1584,1585,1586,1587,1588,1589,1590,1591,1592,1593,1594,1595,1596,1597,1598,1599,1600,1601,1602,1603,1604,1605,1606,1607,1608,1609,1610,1611,1612,1613,1614,1615,1616,1617,1618,1619,1620,1621,1622,1623,1624,1625,1626,1627,1628,1629,1630,1631,1632,1633,1634,1635,1636,1637,1638,1639,1640,1641,1642,1643,1644,1645,1646,1647,1648,1649,1650,1651,1652,1653,1654,1655,1656,1657,1658,1659,1660,1661,1662,1663,1664,1665,1666,1667,1668,1669,1670,1671,1672,1673,1674,1675,1676,1677,1678,1679,1680,1681,1682,1683,1684,1685,1686,1687,1688,1689,1690,1691,1692,1693,1694,1695,1696,1697,1698,1699,1700,1701,1702,1703,1704,1705,1706,1707,1708,1709,1710,1711,1712,1713,1714,1715,1716,1717,1718,1719,1720,1721,1722,1723,1724,1725,1726,1727,1728,1729,1730,1731,1732,1733,1734,1735,1736,1737,1738,1739,1740,1741,1742,1743,1744,1745,1746,1747,1748,1749,1750,1751,1752,1753,1754,1755,1756,1757,1758,1759,1760,1761,1762,1763,1764,1765,1766,1767,1768,1769,1770,1771,1772,1773,1774,1775,1776,1777,1778,1779,1780,1781,1782,1783,1784,1785,1786,1787,1788,1789,1790,1791,1792,1793,1794,1795,1796,1797,1798,1799,1800,1801,1802,1803,1804,1805,1806,1807,1808,1809,1810,1811,1812,1813,1814,1815,1816,1817,1818,1819,1820,1821,1822,1823,1824,1825,1826,1827,1828,1829,1830,1831,1832,1833,1834,1835,1836,1837,1838,1839,1840,1841,1842,1843,1844,1845,1846,1847,1848,1849,1850,1851,1852,1853,1854,1855,1856,1857,1858,1859,1860,1861,1862,1863,1864,1865,1866,1867,1868,1869,1870,1871,1872,1873,1874,1875,1876,1877,1878,1879,1880,1881,1882,1883,1884,1885,1886,1887,1888,1889,1890,1891,1892,1893,1894,1895,1896,1897,1898,1899,1900,1901,1902,1903,1904,1905,1906,1907,1908,1909,1910,1911,1912,1913,1914,1915,1916,1917,1918,1919,1920,1921,1922,1923,1924,1925,1926,1927,1928,1929,1930,1931,1932,1933,1934,1935,1936,1937,1938,1939,1940,1941,1942,1943,1944,1945,1946,1947,1948,1949,1950,1951,1952,1953,1954,1955,1956,1957,1958,1959,1960,1961,1962,1963,1964,1965,1966,1967,1968,1969,1970,1971,1972,1973,1974,1975,1976,1977,1978,1979,1980,1981,1982,1983,1984,1985,1986,1987,1988,1989,1990,1991,1992,1993,1994,1995,1996,1997,1998,1999,2000,2001,2002,2003,2004,2005,2006,2007,2008,2009,2010,2011,2012,2013,2014,2015,2016,2017,2018,2019,2020,2021,2022,2023,2024,2025,2026,2027,2028,2029,2030,2031,2032,2033,2034,2035,2036,2037,2038,2039,2040,2041,2042,2043,2044,2045,2046,2047,2048,2049,2050,2051,2052,2053,2054,2055,2056,2057,2058,2059,2060,2061,2062,2063,2064,2065,2066,2067,2068,2069,2070,2071,2072,2073,2074,2075,2076,2077,2078,2079,2080,2081,2082,2083,2084,2085,2086,2087,2088,2089,2090,2091,2092,2093,2094,2095,2096,2097,2098,2099,2100,2101,2102,2103,2104,2105,2106,2107,2108,2109,2110,2111,2112,2113,2114,2115,2116,2117,2118,2119,2120,2121,2122,2123,2124,2125,2126,2127,2128,2129,2130,2131,2132,2133,2134,2135,2136,2137,2138,2139,2140,2141,2142,2143,2144,2145,2146,2147,2148,2149,2150,2151,2152,2153,2154,2155,2156,2157,2158,2159,2160,2161,2162,2163,2164,2165,2166,2167,2168,2169,2170,2171,2172,2173,2174,2175,2176,2177,2178,2179,2180,2181,2182,2183,2184,2185,2186,2187,2188,2189,2190,2191,2192,2193,2194,2195,2196,2197,2198,2199,2200,2201,2202,2203,2204,2205,2206,2207,2208,2209,2210,2211,2212,2213,2214,2215,2216,2217,2218,2219,2220,2221,2222,2223,2224,2225,2226,2227,2228,2229,2230,2231,2232,2233,2234,2235,2236,2237,2238,2239,2240,2241,2242,2243,2244,2245,2246,2247,2248,2249,2250,2251,2252,2253,2254,2255,2256,2257,2258,2259,2260,2261,2262,2263,2264,2265,2266,2267,2268,2269,2270,2271,2272,2273,2274,2275,2276,2277,2278,2279,2280,2281,2282,2283,2284,2285,2286,2287,2288,2289,2290,2291,2292,2293,2294,2295,2296,2297,2298,2299,2300,2301,2302,2303,2304,2305,2306,2307,2308,2309,2310,2311,2312,2313,2314,2315,2316,2317,2318,2319,2320,2321,2322,2323,2324,2325,2326,2327,2328,2329,2330,2331,2332,2333,2334,2335,2336,2337,2338,2339,2340,2341,2342,2343,2344,2345,2346,2347,2348,2349,2350,2351,2352,2353,2354,2355,2356,2357,2358,2359,2360,2361,2362,2363,2364,2365,2366,2367,2368,2369,2370,2371,2372,2373,2374,2375,2376,2377,2378,2379,2380,2381,2382,2383,2384,2385,2386,2387,2388,2389,2390,2391,2392,2393,2394,2395,2396,2397,2398,2399,2400,2401,2402,2403,2404,2405,2406,2407,2408,2409,2410,2411,2412,2413,2414,2415,2416,2417,2418,2419,2420,2421,2422,2423,2424,2425,2426,2427,2428,2429,2430,2431,2432,2433,2434,2435,2436,2437,2438,2439,2440,2441,2442,2443,2444,2445,2446,2447,2448,2449,2450,2451,2452,2453,2454,2455,2456,2457,2458,2459,2460,2461,2462,2463,2464,2465,2466,2467,2468,2469,2470,2471,2472,2473,2474,2475,2476,2477,2478,2479,2480,2481,2482,2483,2484,2485,2486,2487,2488,2489,2490,2491,2492,2493,2494,2495,2496,2497,2498,2499,2500,2501,2502,2503,2504,2505,2506,2507,2508,2509,2510,2511,2512,2513,2514,2515,2516,2517,2518,2519,2520,2521,2522,2523,2524,2525,2526,2527,2528,2529,2530,2531,2532,2533,2534,2535,2536,2537,2538,2539,2540,2541,2542,2543,2544,2545,2546,2547,2548,2549,2550,2551,2552,2553,2554,2555,2556,2557,2558,2559,2560,2561,2562,2563,2564,2565,2566,2567,2568,2569,2570,2571,2572,2573,2574,2575,2576,2577,2578,2579,2580,2581,2582,2583,2584,2585,2586,2587,2588,2589,2590,2591,2592,2593,2594,2595,2596,2597,2598,2599,2600,2601,2602,2603,2604,2605,2606,2607,2608,2609,2610,2611,2612,2613,2614,2615,2616,2617,2618,2619,2620,2621,2622,2623,2624,2625,2626,2627,2628,2629,2630,2631,2632,2633,2634,2635,2636,2637,2638,2639,2640,2641,2642,2643,2644,2645,2646,2647,2648,2649,2650,2651,2652,2653,2654,2655,2656,2657,2658,2659,2660,2661,2662,2663,2664,2665,2666,2667,2668,2669,2670,2671,2672,2673,2674,2675,2676,2677,2678,2679,2680,2681,2682,2683,2684,2685,2686,2687,2688,2689,2690,2691,2692,2693,2694,2695,2696,2697,2698,2699,2700,2701,2702,2703,2704,2705,2706,2707,2708,2709,2710,2711,2712,2713,2714,2715,2716,2717,2718,2719,2720,2721,2722,2723,2724,2725,2726,2727,2728,2729,2730,2731,2732,2733,2734,2735,2736,2737,2738,2739,2740,2741,2742,2743,2744,2745,2746,2747,2748,2749,2750,2751,2752,2753,2754,2755,2756,2757,2758,2759,2760,2761,2762,2763,2764,2765,2766,2767,2768,2769,2770,2771,2772,2773,2774,2775,2776,2777,2778,2779,2780,2781,2782,2783,2784,2785,2786,2787,2788,2789,2790,2791,2792,2793,2794,2795,2796,2797,2798,2799,2800,2801,2802,2803,2804,2805,2806,2807,2808,2809,2810,2811,2812,2813,2814,2815,2816,2817,2818,2819,2820,2821,2822,2823,2824,2825,2826,2827,2828,2829,2830,2831,2832,2833,2834,2835,2836,2837,2838,2839,2840,2841,2842,2843,2844,2845,2846,2847,2848,2849,2850,2851,2852,2853,2854,2855,2856,2857,2858,2859,2860,2861,2862,2863,2864,2865,2866,2867,2868,2869,2870,2871,2872,2873,2874,2875,2876,2877,2878,2879,2880,2881,2882,2883,2884,2885,2886,2887,2888,2889,2890,2891,2892,2893,2894,2895,2896,2897,2898,2899,2900,2901,2902,2903,2904,2905,2906,2907,2908,2909,2910,2911,2912,2913,2914,2915,2916,2917,2918,2919,2920,2921,2922,2923,2924,2925,2926,2927,2928,2929,2930,2931,2932,2933,2934,2935,2936,2937,2938,2939,2940,2941,2942,2943,2944,2945,2946,2947,2948,2949,2950,2951,2952,2953,2954,2955,2956,2957,2958,2959,2960,2961,2962,2963,2964,2965,2966,2967,2968,2969,2970,2971,2972,2973,2974,2975,2976,2977,2978,2979,2980,2981,2982,2983,2984,2985,2986,2987,2988,2989,2990,2991,2992,2993,2994,2995,2996,2997,2998,2999,3000,stress_score,anxiety_score,depression_score
2640,2633,2631,2625,2622,2616,2609,2607,2599,2588,2578,2570,2562,2559,2559,2567,2586,2598,2630,2648,2662,2683,2696,2720,2735,2740,2746,2751,2752,2755,2757,2756,2760,2763,2763,2761,2756,2753,2746,2740,2739,2733,2730,2726,2723,2720,2718,2714,2707,2703,2698,2686,2675,2670,2667,2659,2649,2646,2641,2638,2635,2628,2624,2619,2615,2611,2602,2596,2591,2585,2581,2583,2587,2591,2602,2610,2625,2639,2656,2669,2698,2722,2732,2743,2751,2758,2768,2770,2771,2775,2779,2781,2780,2778,2772,2771,2768,2764,2755,2750,2746,2738,2734,2731,2727,2724,2716,2714,2714,2708,2699,2696,2688,2680,2679,2670,2664,2655,2652,2649,2640,2635,2630,2620,2614,2610,2604,2601,2609,2624,2636,2646,2660,2668,2688,2703,2709,2715,2718,2722,2724,2725,2729,2731,2732,2737,2740,2740,2742,2738,2735,2732,2732,2726,2725,2721,2719,2717,2715,2714,2711,2709,2704,2702,2695,2688,2680,2676,2668,2665,2654,2646,2644,2637,2629,2625,2622,2616,2613,2612,2607,2600,2596,2597,2592,2592,2587,2582,2581,2575,2575,2574,2575,2585,2595,2608,2623,2644,2681,2712,2737,2749,2763,2767,2769,2772,2777,2779,2781,2782,2782,2779,2775,2773,2766,2760,2756,2750,2746,2742,2740,2734,2728,2723,2715,2706,2694,2681,2671,2661,2649,2642,2636,2629,2623,2618,2615,2614,2609,2607,2599,2594,2586,2582,2573,2570,2568,2570,2574,2586,2603,2615,2629,2645,2659,2683,2714,2722,2735,2743,2750,2752,2757,2759,2763,2768,2769,2772,2774,2774,2775,2774,2773,2769,2768,2768,2763,2759,2759,2756,2754,2747,2745,2736,2728,2724,2712,2700,2696,2690,2684,2680,2670,2659,2654,2646,2637,2632,2623,2612,2604,2596,2590,2589,2588,2592,2602,2611,2622,2636,2651,2666,2682,2712,2728,2747,2754,2762,2770,2778,2780,2782,2788,2789,2785,2782,2780,2774,2768,2766,2761,2751,2747,2746,2739,2733,2731,2726,2722,2718,2707,2701,2693,2683,2676,2668,2663,2653,2649,2646,2636,2631,2629,2621,2615,2613,2606,2604,2598,2592,2590,2586,2580,2577,2574,2568,2564,2563,2575,2585,2596,2626,2664,2685,2703,2720,2743,2763,2768,2772,2779,2782,2785,2788,2789,2787,2788,2783,2779,2777,2771,2764,2761,2756,2753,2748,2746,2742,2739,2734,2724,2719,2714,2705,2694,2689,2682,2677,2670,2667,2662,2651,2648,2640,2634,2628,2623,2619,2611,2608,2606,2601,2599,2591,2587,2585,2583,2586,2601,2611,2625,2638,2654,2671,2686,2714,2737,2744,2757,2770,2774,2776,2781,2781,2784,2787,2786,2786,2784,2783,2782,2775,2772,2769,2767,2764,2759,2757,2755,2754,2750,2742,2740,2733,2721,2718,2704,2695,2683,2677,2672,2669,2665,2657,2647,2642,2641,2633,2624,2620,2614,2612,2608,2609,2609,2614,2619,2640,2659,2672,2685,2711,2735,2748,2764,2769,2773,2777,2780,2786,2789,2792,2792,2792,2792,2791,2788,2783,2779,2773,2769,2762,2750,2745,2738,2723,2718,2712,2699,2690,2684,2675,2669,2659,2649,2644,2635,2624,2620,2615,2611,2607,2602,2600,2596,2595,2591,2591,2586,2585,2579,2574,2572,2568,2565,2561,2558,2552,2544,2542,2542,2542,2547,2555,2566,2581,2595,2633,2656,2674,2694,2711,2727,2740,2749,2757,2765,2771,2775,2779,2782,2787,2789,2794,2797,2801,2803,2802,2801,2800,2797,2794,2789,2785,2780,2776,2770,2763,2760,2755,2747,2742,2738,2733,2729,2721,2717,2710,2704,2697,2693,2688,2683,2677,2671,2666,2661,2658,2651,2641,2638,2632,2627,2622,2619,2613,2608,2603,2599,2595,2594,2596,2600,2606,2614,2625,2635,2650,2664,2679,2694,2711,2722,2735,2744,2753,2759,2765,2771,2775,2780,2785,2789,2791,2795,2795,2798,2796,2792,2789,2787,2778,2775,2769,2766,2761,2758,2756,2752,2750,2741,2731,2727,2721,2716,2708,2704,2696,2691,2685,2680,2673,2668,2663,2659,2654,2649,2645,2639,2634,2628,2623,2615,2611,2606,2601,2598,2594,2594,2594,2599,2605,2615,2627,2641,2656,2671,2688,2703,2719,2732,2745,2754,2763,2768,2774,2776,2782,2784,2788,2792,2796,2797,2800,2802,2800,2798,2793,2790,2783,2777,2769,2763,2753,2748,2738,2732,2721,2710,2704,2698,2693,2686,2680,2673,2667,2663,2656,2651,2646,2642,2636,2635,2630,2627,2623,2620,2617,2616,2613,2611,2608,2605,2602,2597,2595,2591,2589,2585,2582,2575,2571,2562,2555,2552,2548,2545,2545,2546,2551,2559,2570,2584,2599,2615,2632,2647,2664,2679,2695,2706,2721,2730,2734,2738,2742,2747,2753,2761,2766,2770,2775,2779,2784,2785,2784,2782,2777,2771,2764,2758,2750,2745,2738,2731,2726,2721,2715,2710,2707,2702,2698,2695,2692,2687,2685,2680,2678,2675,2674,2671,2669,2665,2664,2661,2658,2655,2650,2648,2643,2640,2636,2633,2627,2625,2620,2618,2613,2611,2608,2607,2606,2609,2615,2624,2635,2647,2663,2680,2699,2717,2736,2752,2768,2779,2790,2798,2805,2809,2814,2818,2818,2820,2821,2821,2821,2819,2816,2812,2810,2804,2799,2793,2787,2781,2777,2771,2765,2759,2755,2750,2745,2741,2736,2732,2727,2722,2717,2714,2709,2707,2703,2701,2698,2695,2691,2688,2684,2683,2680,2676,2674,2669,2664,2658,2654,2648,2645,2639,2636,2631,2632,2635,2641,2651,2664,2677,2693,2710,2728,2746,2762,2778,2790,2800,2806,2810,2813,2815,2815,2816,2816,2816,2814,2813,2810,2803,2799,2793,2786,2779,2770,2762,2752,2744,2734,2729,2721,2715,2703,2694,2688,2680,2673,2667,2660,2650,2641,2633,2623,2615,2606,2600,2592,2586,2580,2574,2569,2565,2560,2558,2556,2552,2550,2547,2546,2544,2543,2542,2543,2542,2543,2539,2538,2536,2535,2532,2530,2527,2525,2524,2524,2529,2536,2548,2560,2575,2592,2613,2633,2656,2675,2696,2715,2731,2743,2756,2766,2774,2781,2789,2795,2801,2807,2811,2818,2821,2823,2824,2826,2824,2822,2819,2816,2809,2804,2797,2791,2785,2778,2771,2763,2758,2749,2743,2733,2727,2717,2700,2693,2685,2679,2664,2653,2648,2641,2635,2628,2621,2616,2611,2606,2601,2597,2593,2589,2583,2580,2576,2574,2570,2566,2562,2558,2555,2552,2549,2546,2545,2544,2545,2546,2554,2563,2578,2593,2611,2631,2654,2675,2697,2720,2742,2760,2775,2788,2798,2806,2811,2816,2821,2825,2828,2832,2833,2836,2838,2839,2838,2837,2836,2832,2828,2825,2821,2816,2813,2807,2805,2802,2799,2794,2791,2788,2783,2778,2774,2769,2765,2759,2753,2749,2741,2734,2732,2729,2726,2723,2722,2718,2717,2714,2713,2710,2707,2702,2698,2692,2687,2684,2682,2684,2686,2693,2700,2709,2718,2732,2745,2759,2770,2782,2790,2799,2803,2807,2810,2813,2814,2813,2814,2815,2816,2815,2814,2809,2807,2802,2798,2793,2788,2782,2776,2769,2764,2759,2756,2754,2749,2746,2743,2738,2732,2727,2722,2717,2708,2702,2695,2686,2678,2668,2659,2651,2644,2638,2629,2621,2615,2606,2600,2595,2591,2585,2581,2576,2571,2565,2562,2558,2553,2549,2545,2541,2536,2532,2527,2523,2517,2515,2515,2520,2527,2539,2552,2570,2588,2609,2632,2655,2677,2698,2714,2728,2741,2749,2756,2761,2766,2769,2774,2779,2784,2786,2788,2790,2789,2788,2785,2781,2775,2769,2762,2754,2748,2741,2735,2727,2722,2716,2711,2705,2698,2691,2683,2676,2668,2660,2653,2646,2639,2632,2625,2619,2613,2607,2602,2596,2590,2586,2579,2574,2569,2565,2559,2555,2551,2546,2543,2540,2537,2533,2531,2527,2523,2519,2518,2517,2520,2524,2534,2546,2563,2582,2602,2624,2650,2675,2698,2722,2743,2760,2773,2785,2792,2800,2805,2812,2816,2821,2824,2827,2830,2833,2835,2835,2834,2831,2829,2823,2819,2815,2810,2803,2797,2791,2786,2780,2774,2767,2761,2753,2747,2738,2729,2722,2715,2707,2700,2693,2687,2681,2675,2670,2665,2660,2655,2649,2643,2638,2633,2627,2621,2616,2611,2604,2598,2594,2591,2591,2596,2602,2613,2625,2639,2655,2671,2689,2706,2722,2737,2749,2756,2759,2762,2762,2761,2759,2756,2754,2750,2748,2744,2742,2741,2738,2734,2731,2726,2720,2715,2710,2704,2697,2691,2684,2678,2671,2665,2659,2654,2648,2642,2635,2630,2625,2620,2614,2609,2604,2597,2593,2587,2581,2577,2571,2568,2563,2559,2557,2554,2552,2550,2548,2547,2546,2544,2540,2537,2536,2535,2538,2542,2548,2559,2571,2587,2604,2622,2642,2661,2679,2695,2709,2721,2729,2736,2741,2744,2748,2750,2754,2758,2762,2767,2770,2772,2776,2776,2776,2772,2768,2763,2756,2747,2737,2727,2717,2706,2695,2686,2677,2669,2662,2655,2648,2643,2638,2633,2629,2625,2621,2617,2612,2608,2604,2599,2594,2591,2587,2584,2581,2578,2577,2576,2576,2577,2577,2578,2580,2584,2591,2599,2611,2624,2640,2659,2679,2700,2725,2747,2769,2790,2810,2827,2843,2858,2868,2877,2885,2891,2896,2901,2905,2907,2909,2909,2906,2902,2898,2892,2887,2882,2875,2870,2865,2859,2855,2851,2846,2843,2840,2834,2828,2822,2813,2806,2794,2783,2771,2759,2745,2731,2717,2704,2691,2679,2667,2656,2647,2636,2627,2618,2609,2602,2596,2587,2579,2571,2563,2555,2550,2547,2546,2550,2554,2561,2571,2584,2600,2615,2632,2649,2663,2679,2689,2700,2708,2716,2721,2726,2730,2736,2741,2746,2752,2757,2763,2769,2773,2776,2779,2780,2782,2782,2782,2782,2782,2781,2779,2777,2776,2774,2771,2770,2767,2763,2759,2756,2751,2747,2742,2736,2730,2725,2718,2711,2702,2694,2685,2675,2663,2650,2640,2629,2619,2609,2603,2598,2598,2600,2606,2616,2629,2644,2660,2677,2694,2712,2725,2742,2761,2766,2768,2770,2772,2772,2770,2765,2762,2756,2748,2739,2729,2719,2709,2699,2688,2678,2669,2662,2658,2655,2651,2648,2645,2639,2634,2627,2618,2609,2598,2585,2571,2557,2542,2528,2516,2504,2492,2480,2471,2460,2454,2446,2439,2432,2426,2421,2418,2414,2412,2410,2409,2407,2407,2410,2416,2427,2441,2458,2479,2502,2530,2559,2590,2622,2653,2685,2715,2740,2763,2784,2799,2814,2826,2836,2847,2856,2861,2867,2869,2872,2872,2872,2871,2868,2865,2861,2855,2849,2844,2839,2834,2829,2824,2819,2813,2807,2800,2794,2785,2776,2765,2754,2743,2731,2719,2707,2696,2685,2673,2660,2648,2637,2627,2615,2604,2593,2582,2572,2561,2552,2544,2536,2528,2520,2513,2506,2499,2493,2488,2484,2481,2481,2484,2490,2501,2515,2533,2554,2576,2600,2624,2647,2669,2689,2706,2721,2733,2743,2749,2755,2760,2764,2772,2778,2784,2790,2795,2800,2803,2806,2808,2809,2809,2810,2809,2807,2803,2802,2799,2794,2790,2785,2781,2777,2772,2764,2755,2749,2743,2735,2728,2721,2716,2710,2705,2700,2694,2691,2686,2682,2677,2674,2670,2664,2659,2656,2651,2645,2640,2635,2631,2627,2625,2626,2632,2641,2652,2667,2684,2702,2722,2743,2763,2783,2802,2816,2827,2838,2844,2849,2853,2855,2857,2859,2861,2863,2863,2863,2863,2861,2858,2854,2849,2843,2838,2832,2825,2818,2810,2803,2795,2788,2780,2773,2764,2755,2744,2735,2725,2714,2704,2695,2685,2676,2667,2658,2649,2642,2635,2629,2622,2616,2611,2604,2598,2593,2586,2581,2576,2571,2565,2559,2554,2548,2542,2537,2533,2529,2528,2532,2539,2549,2565,2583,2604,2626,2651,2676,2702,2726,2748,2768,2784,2797,2808,2818,2824,2831,2836,2843,2849,2854,2857,2861,2862,2862,2859,2856,2852,2846,2840,2832,2824,2817,2809,2801,2793,2787,2779,2771,2765,2757,2750,2742,2732,2723,2715,2706,2696,2687,2678,2668,2659,2650,2642,2634,2626,2618,2611,2605,2598,2592,2584,2578,2571,2564,2558,2551,2544,2538,2531,2525,2518,2511,2506,2499,2494,2487,2482,2475,2471,2471,2474,2480,2492,2508,2528,2550,2574,2601,2628,2657,2685,2707,2728,2746,2757,2768,2775,2782,2788,2792,2797,2801,2805,2809,2812,2814,2815,2816,2815,2813,2810,2806,2803,2797,2791,2786,2780,2774,2768,2762,2755,2748,2741,2733,2725,2719,2711,2703,2695,2687,2680,2672,2665,2659,2653,2647,2640,2634,2628,2622,2617,2612,2606,2601,2595,2588,2583,2576,2570,2564,2557,2551,2545,2540,2539,2542,2547,2556,2569,2587,2606,2625,2645,2668,2691,2710,2728,2745,2756,2766,2774,2778,2782,2786,2788,2790,2792,2795,2795,2795,2795,2793,2791,2789,2785,2780,2775,2770,2763,2760,2756,2750,2745,2739,2733,2726,2720,2713,2706,2700,2692,2684,2677,2670,2662,2654,2647,2641,2635,2630,2624,2618,2611,2606,2602,2597,2593,2590,2585,2581,2576,2572,2568,2566,2563,2563,2565,2571,2580,2593,2609,2628,2650,2670,2693,2717,2739,2759,2775,2789,2799,2806,2811,2813,2816,2816,2814,2814,2812,2811,2810,2809,2807,2804,2801,2797,2793,2788,2781,2777,2772,2765,2759,2753,2747,2741,2735,2730,2725,2720,2714,2707,2699,2693,2685,2677,2670,2662,2655,2647,2639,2633,2626,2620,2614,2608,2604,2599,2595,2592,2587,2583,2577,2572,2568,2564,2559,2554,2551,2546,2541,2535,2530,2526,2522,2517,2513,2512,2515,2522,2533,2549,2568,2591,2612,2638,2664,2691,2714,2736,2753,2768,2780,2786,2791,2796,2799,2800,2801,2803,2806,2808,2809,2808,2806,2804,2802,2798,2795,2789,2783,2777,2770,2764,2758,2753,2747,2741,2735,2730,2723,2717,2711,2705,2697,2692,2684,2678,2672,2666,2659,2653,2649,2643,2638,2632,2627,2622,2619,2612,2607,2601,2596,2590,2585,2581,2577,2572,2568,2565,2563,2564,2568,2576,2586,2600,2614,2634,2652,2674,2696,2717,2736,2755,2769,2782,2791,2797,2801,2803,2807,2807,2808,2809,2810,2808,2806,2804,2802,2799,2795,2790,2786,2781,2777,2772,2768,2764,2761,2758,2755,2752,2749,2746,2742,2736,2730,2726,2720,2714,2706,2698,2691,2684,2677,2669,2663,2657,2650,2643,2638,2634,2630,2623,2619,2614,2612,2607,2603,2598,2595,2591,2585,2581,2579,2580,2584,2592,2604,2618,2635,2654,2673,2693,2715,2737,2755,2772,2785,2794,2802,2807,2810,2814,2817,2818,2819,2819,2821,2821,2822,2820,2819,2815,2811,2805,2800,2795,2789,2783,2777,2771,2765,2760,2754,2751,2746,2742,2735,2730,2723,2718,2710,2705,2697,2691,2684,2678,2672,2666,2661,2656,2651,2646,2642,2637,2633,2627,2623,2618,2612,2608,2604,2597,2593,2589,2583,2579,2574,2569,2566,2562,2556,2551,2547,2545,2545,2549,2556,2567,2579,2596,2613,2633,2654,2675,2695,2714,2731,2742,2753,2760,2767,2769,2772,2774,2776,2778,2779,2778,2779,2778,2777,2774,2769,2766,2761,2755,2748,2741,2735,2732,2726,2722,2717,2715,2711,2708,2703,2700,2697,2694,2688,2682,2677,2671,2666,2660,2657,2650,2648,2641,2636,2632,2630,2626,2623,2618,2617,2613,2610,2607,2604,2603,2600,2598,2596,2596,2597,2603,2609,2619,2630,2644,2657,2672,2687,2703,2718,2730,2740,2747,2754,2757,2761,2764,2766,2768,2770,2770,2772,2774,2776,2775,2774,2773,2772,2769,2764,2759,2755,2751,2746,2741,2735,2732,2727,2721,2714,2711,2707,2701,2696,2689,2683,2677,2671,2666,2661,2657,2651,2646,2642,2638,2635,2632,2629,2626,2624,2623,2619,2616,2613,2609,2605,2600,2595,2591,2589,2591,2594,2598,2607,2617,2630,2644,2660,2677,2692,2708,2722,2732,2741,2749,2756,2760,2763,2766,2768,2771,2774,2776,2779,2781,2782,2782,2781,2780,2779,2777,2775,2772,2768,2766,2763,2760,2757,2754,2752,2749,2746,2742,2737,2734,2728,2723,2719,2712,2707,2702,2696,2691,2686,2681,2677,2672,2667,2663,2659,2653,2648,2643,2638,2633,2629,2625,2619,2614,2609,2604,2599,2594,2590,2585,2579,2575,2571,2570,2571,2576,2584,2596,2608,2622,2638,2654,2671,2688,2703,2716,2727,2735,2741,2747,2750,2753,2757,2762,2766,2769,2773,2777,2780,2782,2782,2782,2781,2779,2777,2772,2768,2763,2760,2757,2753,2749,2744,2740,2737,2731,2726,2722,2716,2711,2704,2697,2691,2685,2678,2672,2666,2662,2658,2653,2649,2644,2639,2635,2630,2624,2620,2615,2609,2603,2599,2595,2590,2587,2582,2579,2577,2576,2577,2580,2586,2595,2606,2618,2631,2646,2660,2676,2691,2704,2715,2724,2732,2738,2742,2746,2751,2755,2760,2764,2766,2769,2772,2774,2776,2775,2775,2774,2771,2768,2765,2764,2762,2759,2755,2752,2748,2745,2743,2742,2738,2735,2732,2727,2721,2715,2710,2703,2694,2686,2675,2665,2654,2642,2628,2617,2607,2598,2588,2579,2572,2564,2558,2552,2545,2540,2535,2531,2526,2521,2518,2516,2518,2523,2530,2541,2555,2573,2592,2612,2634,2657,2680,2701,2720,2736,2749,2761,2770,2775,2781,2786,2789,2789,2789,2787,2784,2780,2774,2767,2760,2754,2746,2737,2730,2725,2718,2710,2704,2698,2691,2684,2676,2668,2660,2652,2643,2636,2631,2627,2625,2624,2625,2627,2631,2635,2639,2645,2651,2656,2658,2659,2660,2659,2659,2656,2651,2646,2639,2633,2626,2619,2613,2606,2601,2597,2593,2589,2588,2590,2592,2597,2604,2613,2626,2638,2651,2666,2679,2695,2708,2720,2731,2740,2747,2753,2756,2760,2762,2764,2766,2767,2768,2768,2769,2769,2768,2766,2765,2764,2761,2758,2757,2754,2751,2748,2746,2744,2744,2743,2742,2742,2742,2742,2742,2743,2743,2744,2744,2745,2744,2743,2743,2742,2742,2742,2741,2740,2740,2738,2735,2732,2730,2730,2729,2729,2732,2735,2741,2747,2756,6,2,0
2662,2650,2641,2629,2623,2619,2614,2611,2607,2605,2602,2601,2600,2601,2605,2609,2619,2638,2650,2664,2677,2692,2707,2722,2736,2749,2760,2769,2778,2785,2790,2795,2799,2801,2804,2806,2806,2806,2805,2800,2796,2787,2780,2774,2766,2763,2759,2756,2750,2748,2746,2740,2731,2721,2715,2708,2701,2693,2687,2673,2660,2649,2629,2611,2594,2588,2581,2575,2571,2569,2564,2561,2560,2556,2556,2556,2564,2573,2582,2595,2608,2628,2668,2690,2710,2732,2748,2773,2796,2802,2811,2817,2822,2828,2831,2833,2835,2835,2834,2833,2829,2824,2819,2813,2806,2797,2789,2776,2759,2752,2744,2727,2719,2711,2702,2694,2684,2676,2665,2646,2635,2628,2620,2613,2606,2600,2594,2590,2581,2576,2573,2564,2559,2556,2552,2550,2548,2546,2543,2542,2541,2542,2542,2541,2541,2539,2538,2538,2544,2551,2560,2570,2585,2603,2621,2644,2666,2690,2711,2733,2753,2776,2803,2813,2826,2832,2834,2836,2839,2842,2842,2839,2835,2832,2828,2825,2816,2808,2804,2799,2794,2791,2787,2784,2777,2770,2767,2759,2744,2733,2724,2708,2702,2686,2668,2658,2652,2641,2626,2620,2616,2608,2603,2598,2594,2587,2579,2576,2573,2567,2563,2561,2559,2552,2547,2545,2540,2536,2537,2539,2550,2573,2610,2640,2659,2690,2738,2773,2788,2800,2812,2820,2828,2833,2836,2841,2845,2845,2846,2845,2844,2839,2834,2826,2813,2803,2799,2789,2784,2780,2774,2770,2765,2761,2756,2743,2728,2719,2713,2698,2686,2679,2672,2664,2657,2648,2641,2634,2622,2607,2600,2596,2589,2586,2578,2575,2569,2567,2566,2564,2562,2561,2562,2559,2556,2556,2552,2548,2544,2546,2555,2567,2579,2613,2662,2689,2730,2766,2786,2815,2824,2831,2838,2843,2844,2844,2846,2845,2841,2836,2834,2828,2825,2821,2812,2806,2803,2795,2792,2791,2787,2779,2776,2772,2760,2750,2742,2732,2726,2715,2707,2687,2672,2664,2650,2633,2624,2619,2610,2605,2599,2591,2587,2585,2581,2578,2577,2572,2568,2566,2564,2561,2556,2547,2541,2538,2536,2538,2539,2542,2561,2583,2599,2623,2643,2669,2718,2744,2760,2787,2811,2821,2824,2823,2818,2817,2812,2809,2804,2799,2794,2784,2779,2775,2770,2767,2762,2761,2760,2755,2753,2753,2749,2742,2739,2733,2728,2722,2715,2710,2703,2698,2690,2675,2658,2651,2643,2629,2621,2616,2608,2603,2598,2595,2592,2587,2584,2581,2578,2580,2584,2587,2604,2618,2645,2673,2696,2745,2784,2802,2815,2834,2848,2852,2852,2848,2842,2835,2822,2817,2810,2796,2788,2785,2777,2768,2765,2757,2753,2748,2741,2736,2732,2721,2708,2703,2695,2690,2673,2661,2645,2632,2627,2619,2614,2601,2595,2586,2576,2573,2571,2567,2569,2571,2577,2599,2618,2633,2654,2675,2694,2718,2737,2760,2796,2808,2815,2821,2824,2823,2817,2813,2804,2786,2780,2767,2753,2746,2742,2736,2735,2739,2740,2747,2751,2755,2760,2765,2770,2770,2769,2759,2755,2738,2713,2685,2653,2622,2598,2587,2573,2563,2563,2562,2563,2567,2568,2570,2576,2592,2619,2632,2665,2698,2717,2738,2757,2775,2803,2818,2824,2831,2840,2844,2843,2845,2846,2844,2843,2839,2833,2824,2819,2816,2812,2809,2800,2797,2789,2786,2780,2764,2749,2737,2714,2694,2686,2669,2655,2648,2636,2620,2610,2601,2589,2586,2575,2568,2566,2563,2556,2552,2554,2556,2563,2568,2580,2591,2615,2655,2698,2735,2752,2767,2793,2806,2811,2818,2823,2825,2829,2828,2824,2824,2816,2806,2803,2791,2775,2764,2749,2744,2733,2728,2720,2713,2707,2701,2697,2690,2685,2670,2660,2654,2645,2637,2631,2623,2617,2601,2592,2587,2578,2568,2559,2554,2551,2545,2540,2536,2535,2533,2531,2529,2529,2531,2531,2538,2559,2572,2606,2639,2663,2687,2722,2765,2781,2810,2827,2834,2834,2835,2834,2831,2832,2826,2821,2819,2813,2809,2799,2787,2777,2763,2760,2751,2744,2744,2742,2737,2733,2729,2726,2719,2714,2699,2686,2677,2668,2653,2630,2611,2603,2586,2578,2573,2566,2562,2558,2554,2555,2553,2550,2551,2550,2547,2543,2537,2537,2539,2541,2558,2573,2588,2608,2629,2648,2684,2726,2745,2781,2803,2812,2815,2819,2822,2823,2824,2822,2821,2820,2817,2815,2808,2798,2793,2788,2783,2780,2770,2765,2759,2753,2751,2745,2737,2730,2719,2713,2704,2700,2687,2668,2654,2646,2637,2620,2611,2606,2595,2585,2578,2575,2573,2571,2570,2567,2567,2566,2563,2565,2566,2571,2586,2598,2611,2628,2645,2666,2684,2714,2750,2767,2783,2796,2816,2829,2832,2834,2835,2832,2829,2823,2818,2803,2786,2776,2771,2765,2759,2754,2746,2739,2733,2722,2708,2694,2677,2665,2657,2648,2643,2635,2621,2609,2599,2594,2592,2587,2584,2583,2580,2580,2575,2567,2564,2565,2574,2592,2621,2657,2678,2694,2710,2725,2738,2749,2757,2768,2772,2775,2774,2771,2769,2766,2761,2757,2750,2744,2728,2718,2712,2705,2694,2686,2686,2681,2675,2673,2667,2661,2653,2647,2642,2635,2630,2623,2618,2610,2607,2599,2589,2585,2582,2576,2566,2565,2561,2555,2554,2551,2546,2541,2538,2536,2533,2533,2534,2545,2556,2578,2609,2623,2644,2683,2719,2735,2747,2756,2763,2773,2780,2781,2786,2786,2787,2790,2790,2788,2783,2776,2774,2768,2761,2758,2754,2751,2749,2742,2737,2736,2729,2728,2719,2706,2698,2689,2680,2676,2668,2657,2653,2647,2644,2637,2627,2617,2613,2611,2605,2597,2593,2588,2578,2572,2569,2565,2564,2559,2557,2564,2584,2599,2623,2651,2665,2686,2704,2722,2735,2749,2758,2765,2772,2775,2779,2781,2783,2783,2785,2784,2782,2781,2778,2772,2771,2768,2759,2756,2753,2750,2745,2740,2736,2730,2726,2723,2719,2717,2710,2701,2695,2690,2683,2678,2672,2663,2652,2643,2639,2636,2632,2629,2625,2620,2612,2608,2603,2598,2590,2578,2574,2572,2571,2574,2581,2587,2606,2632,2646,2664,2697,2722,2733,2740,2747,2752,2753,2753,2753,2752,2753,2752,2752,2751,2749,2749,2748,2748,2746,2745,2743,2742,2744,2745,2746,2747,2748,2750,2751,2753,2752,2753,2754,2753,2752,2748,2742,2736,2733,2724,2715,2709,2701,2694,2689,2681,2675,2668,2665,2660,2657,2654,2648,2645,2644,2639,2638,2636,2636,2634,2630,2630,2635,2647,2655,2665,2675,2686,2697,2708,2720,2729,2740,2746,2753,2756,2760,2764,2765,2764,2764,2764,2762,2761,2759,2758,2754,2748,2745,2742,2738,2735,2734,2731,2731,2730,2727,2725,2723,2720,2717,2712,2710,2705,2702,2698,2692,2687,2680,2677,2670,2664,2659,2654,2645,2635,2631,2627,2622,2619,2613,2611,2605,2599,2597,2593,2586,2583,2583,2584,2586,2593,2600,2608,2620,2631,2647,2680,2695,2706,2729,2744,2751,2760,2767,2768,2770,2770,2772,2772,2772,2771,2769,2767,2766,2765,2762,2756,2754,2753,2752,2750,2748,2746,2742,2739,2733,2729,2724,2718,2712,2705,2698,2690,2682,2674,2669,2660,2653,2647,2639,2634,2626,2620,2615,2610,2605,2602,2598,2594,2592,2591,2590,2591,2591,2591,2592,2591,2590,2590,2589,2588,2586,2583,2581,2581,2580,2581,2584,2589,2597,2603,2624,2641,2653,2667,2680,2694,2704,2714,2721,2727,2733,2737,2742,2747,2747,2749,2750,2751,2751,2750,2749,2747,2744,2742,2739,2736,2734,2732,2729,2727,2727,2728,2728,2728,2730,2730,2732,2732,2730,2730,2729,2726,2722,2720,2717,2714,2707,2700,2696,2689,2679,2674,2670,2665,2655,2651,2647,2643,2639,2636,2634,2630,2627,2624,2620,2616,2614,2610,2606,2604,2602,2600,2598,2597,2598,2598,2598,2600,2605,2614,2624,2632,2643,2655,2667,2681,2694,2707,2721,2734,2745,2752,2757,2763,2766,2768,2772,2773,2774,2776,2776,2777,2779,2779,2778,2777,2776,2774,2770,2769,2769,2769,2767,2766,2766,2765,2761,2758,2755,2750,2746,2742,2733,2723,2718,2713,2708,2705,2700,2695,2693,2688,2682,2678,2673,2664,2661,2658,2655,2653,2648,2643,2641,2639,2639,2640,2643,2648,2654,2661,2670,2680,2691,2701,2714,2727,2737,2747,2755,2764,2775,2777,2780,2783,2785,2785,2786,2785,2782,2778,2776,2773,2767,2764,2759,2758,2755,2750,2749,2747,2744,2741,2737,2734,2730,2726,2719,2709,2704,2699,2694,2688,2682,2677,2667,2656,2650,2644,2637,2631,2624,2618,2613,2606,2602,2599,2594,2591,2587,2585,2582,2579,2578,2580,2582,2586,2591,2599,2611,2623,2649,2672,2686,2703,2718,2732,2742,2754,2762,2769,2774,2778,2782,2785,2788,2792,2795,2796,2799,2802,2803,2800,2799,2798,2790,2787,2786,2782,2779,2777,2775,2772,2768,2766,2761,2756,2751,2745,2739,2733,2728,2721,2716,2710,2705,2699,2694,2689,2683,2679,2673,2669,2664,2659,2653,2649,2645,2641,2638,2634,2633,2629,2628,2623,2621,2619,2617,2617,2614,2612,2609,2608,2604,2602,2599,2596,2596,2594,2596,2607,2616,2629,2641,2656,2673,2690,2708,2724,2742,2755,2768,2778,2785,2791,2793,2797,2799,2802,2804,2806,2807,2810,2812,2812,2814,2814,2816,2815,2814,2810,2806,2803,2799,2795,2793,2789,2786,2783,2780,2777,2770,2764,2761,2756,2752,2745,2739,2733,2726,2718,2711,2704,2695,2688,2680,2674,2662,2652,2648,2643,2639,2635,2628,2624,2618,2616,2611,2608,2605,2601,2598,2595,2593,2591,2592,2593,2598,2604,2612,2624,2635,2648,2661,2674,2686,2701,2714,2724,2735,2743,2750,2754,2758,2760,2761,2764,2766,2768,2767,2767,2766,2766,2764,2763,2762,2758,2758,2755,2754,2751,2752,2751,2751,2750,2749,2749,2745,2745,2741,2740,2736,2732,2727,2720,2714,2706,2700,2692,2685,2677,2671,2664,2657,2651,2644,2640,2634,2632,2628,2624,2621,2619,2617,2615,2616,2614,2615,2614,2614,2613,2613,2614,2613,2617,2618,2624,2631,2640,2650,2660,2673,2687,2703,2716,2733,2746,2759,2770,2779,2787,2791,2797,2799,2803,2802,2804,2805,2804,2804,2802,2801,2798,2796,2790,2787,2782,2778,2775,2769,2767,2764,2762,2757,2754,2751,2748,2746,2741,2737,2732,2729,2723,2716,2709,2703,2697,2690,2684,2676,2671,2663,2657,2649,2642,2635,2626,2621,2614,2607,2598,2594,2588,2582,2578,2574,2571,2568,2565,2562,2560,2556,2554,2551,2547,2547,2543,2541,2537,2534,2533,2534,2537,2542,2550,2560,2575,2589,2608,2626,2647,2668,2688,2710,2725,2743,2756,2769,2777,2785,2790,2794,2798,2799,2803,2803,2805,2805,2807,2807,2804,2802,2798,2795,2788,2786,2781,2778,2774,2769,2767,2762,2761,2756,2755,2751,2750,2747,2742,2737,2729,2727,2719,2714,2705,2699,2691,2684,2678,2669,2662,2653,2647,2637,2630,2622,2615,2610,2604,2601,2594,2592,2590,2588,2587,2585,2583,2581,2583,2580,2580,2578,2577,2575,2571,2569,2566,2565,2562,2561,2558,2558,2557,2559,2565,2571,2583,2594,2611,2627,2646,2666,2687,2709,2730,2750,2767,2784,2795,2807,2816,2822,2828,2832,2831,2833,2832,2831,2828,2826,2822,2816,2811,2804,2798,2789,2783,2774,2767,2759,2752,2746,2737,2733,2727,2723,2720,2718,2715,2712,2710,2706,2707,2701,2700,2696,2693,2689,2685,2680,2673,2670,2663,2656,2648,2642,2636,2632,2627,2620,2616,2608,2606,2601,2597,2594,2591,2586,2582,2580,2574,2573,2569,2567,2565,2563,2562,2558,2560,2559,2564,2566,2573,2581,2591,2604,2616,2630,2644,2663,2679,2697,2713,2726,2739,2750,2760,2764,2772,2775,2780,2780,2779,2779,2778,2777,2772,2768,2764,2761,2755,2750,2747,2742,2740,2736,2734,2729,2729,2726,2723,2720,2716,2714,2709,2704,2697,2692,2683,2675,2668,2660,2653,2644,2639,2628,2622,2615,2608,2600,2594,2590,2583,2577,2572,2569,2564,2562,2560,2556,2557,2555,2558,2558,2561,2564,2571,2578,2587,2599,2608,2626,2640,2660,2678,2697,2717,2735,2754,2767,2781,2790,2801,2806,2810,2810,2810,2812,2808,2807,2801,2801,2794,2792,2788,2782,2780,2774,2769,2763,2758,2752,2749,2746,2743,2742,2739,2740,2735,2736,2734,2735,2733,2730,2727,2721,2719,2712,2709,2701,2697,2693,2688,2683,2674,2670,2663,2660,2653,2649,2643,2638,2634,2628,2627,2620,2619,2616,2614,2612,2610,2608,2605,2605,2601,2599,2594,2591,2587,2582,2578,2575,2577,2579,2585,2592,2603,2615,2631,2651,2670,2694,2716,2738,2756,2776,2792,2806,2819,2826,2834,2838,2844,2844,2847,2848,2848,2849,2847,2847,2843,2841,2836,2834,2828,2823,2818,2812,2808,2802,2798,2792,2789,2784,2780,2777,2772,2767,2762,2758,2749,2745,2739,2731,2725,2717,2709,2701,2694,2686,2680,2672,2667,2661,2653,2649,2642,2639,2634,2631,2626,2622,2619,2614,2611,2607,2604,2600,2598,2592,2588,2584,2580,2578,2573,2573,2571,2572,2574,2580,2587,2597,2612,2627,2646,2664,2685,2704,2725,2744,2761,2778,2790,2802,2807,2815,2817,2821,2821,2820,2821,2818,2817,2813,2812,2807,2806,2803,2800,2798,2794,2793,2789,2789,2785,2784,2780,2776,2772,2763,2757,2747,2740,2729,2721,2713,2704,2695,2684,2677,2668,2665,2657,2653,2649,2643,2639,2631,2626,2619,2617,2614,2612,2608,2606,2605,2602,2601,2598,2599,2596,2594,2590,2586,2583,2577,2572,2566,2562,2557,2555,2553,2555,2559,2565,2577,2588,2606,2623,2642,2663,2684,2706,2725,2743,2759,2776,2786,2797,2803,2808,2813,2814,2817,2816,2819,2817,2815,2811,2806,2801,2795,2791,2782,2777,2766,2760,2753,2746,2742,2739,2737,2734,2734,2731,2729,2725,2724,2722,2718,2715,2709,2704,2696,2692,2686,2678,2672,2667,2662,2653,2648,2640,2635,2629,2624,2617,2610,2607,2601,2597,2592,2590,2585,2582,2580,2577,2577,2575,2578,2579,2587,2597,2609,2621,2637,2655,2671,2691,2708,2728,2743,2759,2771,2780,2787,2790,2794,2795,2798,2797,2797,2795,2793,2793,2790,2788,2783,2782,2777,2774,2770,2765,2762,2756,2753,2747,2746,2741,2738,2735,2731,2729,2723,2721,2714,2710,2702,2697,2689,2682,2676,2666,2660,2651,2645,2637,2630,2623,2618,2612,2606,2605,2597,2596,2592,2591,2589,2585,2584,2583,2583,2583,2586,2590,2597,2606,2618,2632,2646,2665,2683,2705,2725,2748,2768,2787,2805,2819,2835,2845,2854,2861,2870,2873,2876,2879,2878,2879,2875,2872,2866,2859,2850,2842,2831,2820,2810,2798,2788,2776,2768,2759,2752,2746,2741,2738,2733,2729,2725,2722,2717,2714,2711,2706,2701,2693,2688,2678,2670,2662,2653,2645,2637,2629,2620,2615,2608,2604,2599,2594,2590,2586,2583,2579,2578,2575,2574,2571,2570,2571,2571,2574,2579,2589,2599,2615,2630,2648,2668,2686,2707,2724,2742,2755,2768,2777,2782,2784,2782,2778,2771,2766,2759,2752,2746,2741,2735,2729,2723,2717,2714,2710,2709,2704,2702,2699,2696,2693,2690,2688,2684,2684,2682,2682,2678,2673,2671,2665,2659,2651,2645,2637,2630,2621,2613,2605,2596,2589,2580,2576,2569,2564,2560,2556,2553,2550,2549,2546,2547,2546,2546,2545,2545,2546,2545,2544,2542,2541,2539,2538,2534,2531,2529,2528,2529,2530,2536,2545,2558,2572,2590,2612,2634,2659,2683,2709,2732,2755,2775,2792,2807,2819,2828,2832,2839,2840,2845,2846,2847,2849,2848,2849,2845,2841,2837,2834,2827,2821,2814,2806,2800,2792,2786,2779,2774,2771,2769,2766,2762,2760,2757,2755,2752,2748,2743,2737,2732,2726,2720,2713,2708,2701,2693,2685,2678,2671,2664,2659,2651,2646,2639,2635,2627,2622,2619,2617,2615,2612,2612,2609,2608,2605,2604,2603,2601,2599,2597,2596,2592,2589,2585,2582,2580,2579,2579,2579,2585,2594,2604,2616,2631,2649,2668,2690,2711,2732,2753,2774,2790,2805,2818,2827,2836,2842,2847,2848,2850,2850,2850,2849,2847,2844,2839,2837,2830,2825,2818,2813,2805,2797,2791,2783,2777,2768,2762,2753,2746,2739,2733,2728,2722,2717,2710,2705,2699,2694,2688,2683,2679,2673,2669,2662,2656,2649,2643,2637,2631,2625,2619,2614,2609,2605,2599,2595,2591,2588,2587,2585,2583,2579,2576,2574,2571,2568,2566,2564,2562,2562,2562,2565,2570,2579,2589,2602,2618,2635,2653,2675,2695,2716,2734,2752,2766,2778,2789,2796,2801,2804,2806,2805,2804,2803,2800,2797,2792,2789,2784,2780,2775,2769,2764,2758,2752,2748,2744,2740,2736,2733,2730,2728,2725,2722,2719,2716,2710,2704,2699,2692,2685,2678,2669,2660,2651,2642,2633,2624,2615,2607,2598,2590,2583,2577,2572,2568,2562,2558,2554,2550,2547,2545,2544,2542,2542,2541,2539,2537,2536,2536,2537,2534,2531,2529,2527,2525,2521,2518,2517,2514,2511,2511,2513,2517,2526,2538,2553,2571,2593,2618,2643,2671,2700,2731,2758,2783,2805,2825,2842,2856,2866,2873,2879,2883,2884,2884,2884,2883,2882,2877,2871,2865,2858,2849,2840,2830,2820,2810,2799,2789,2778,2771,2765,2758,2753,2748,2742,2737,2733,2728,2721,2716,2710,2703,2695,2688,2679,2670,2663,2655,2646,2636,2627,2619,2609,2603,2597,2590,2584,2579,2577,2575,2574,2573,2574,2573,2576,2575,2576,2576,2575,2576,2576,2575,2574,2573,2572,2571,2568,2565,2563,2560,2558,2554,2550,2545,2542,2539,2535,2534,2536,2541,2549,2562,2578,2596,2618,2643,2668,2695,2724,2751,2777,2799,2818,2833,2847,2858,2864,2870,2873,2876,2876,2876,2875,2874,2875,2875,2875,2871,2871,2867,2863,2858,2852,2847,2840,2834,2827,0,0,1
2846,2837,2830,2823,2815,2808,2803,2796,2792,2786,2781,2774,2770,2765,2759,2751,2744,2733,2724,2711,2699,2686,2674,2660,2647,2633,2623,2611,2602,2592,2585,2578,2573,2567,2564,2559,2555,2551,2548,2543,2539,2534,2531,2527,2527,2528,2534,2545,2562,2584,2609,2638,2670,2704,2737,2769,2796,2820,2838,2851,2860,2864,2865,2863,2858,2853,2849,2842,2835,2829,2822,2814,2807,2800,2793,2787,2780,2774,2768,2762,2756,2750,2743,2734,2724,2714,2704,2691,2679,2668,2655,2642,2630,2617,2607,2598,2590,2583,2576,2570,2565,2562,2559,2556,2554,2550,2546,2542,2537,2534,2529,2524,2519,2514,2513,2517,2526,2539,2558,2583,2612,2645,2680,2715,2752,2786,2816,2840,2860,2874,2882,2887,2888,2887,2884,2880,2875,2870,2865,2858,2853,2847,2840,2834,2827,2820,2814,2807,2799,2792,2784,2775,2765,2755,2745,2733,2720,2706,2693,2678,2664,2652,2639,2629,2619,2609,2600,2592,2584,2578,2574,2569,2564,2560,2554,2549,2545,2541,2537,2531,2526,2521,2515,2509,2505,2503,2503,2506,2516,2532,2552,2577,2606,2639,2675,2711,2746,2779,2807,2830,2847,2861,2868,2871,2872,2870,2865,2860,2856,2850,2844,2838,2832,2827,2821,2814,2808,2802,2795,2788,2781,2773,2766,2757,2748,2739,2729,2716,2704,2692,2679,2667,2653,2641,2628,2616,2607,2596,2587,2581,2573,2566,2561,2557,2552,2549,2544,2541,2536,2533,2527,2524,2519,2512,2505,2499,2492,2488,2483,2486,2490,2502,2519,2542,2569,2601,2636,2675,2712,2751,2784,2813,2834,2854,2864,2873,2875,2877,2873,2870,2864,2858,2852,2847,2841,2835,2828,2823,2816,2812,2805,2801,2795,2791,2784,2778,2772,2765,2757,2749,2737,2727,2714,2701,2689,2677,2663,2652,2639,2629,2621,2614,2606,2601,2594,2590,2585,2582,2577,2574,2570,2565,2559,2553,2548,2544,2540,2540,2543,2552,2564,2582,2604,2631,2662,2694,2726,2759,2789,2814,2834,2850,2860,2866,2868,2867,2863,2857,2849,2842,2835,2828,2819,2813,2807,2801,2796,2791,2787,2782,2777,2773,2767,2762,2756,2748,2738,2726,2716,2703,2691,2677,2664,2651,2639,2626,2615,2604,2597,2587,2581,2575,2571,2567,2562,2557,2554,2549,2546,2541,2539,2533,2530,2524,2519,2515,2515,2516,2525,2536,2555,2577,2608,2639,2676,2714,2754,2790,2825,2852,2877,2892,2906,2912,2916,2914,2913,2908,2905,2899,2894,2887,2883,2875,2870,2862,2858,2849,2844,2835,2829,2820,2813,2803,2796,2784,2774,2761,2749,2734,2722,2707,2695,2680,2667,2653,2643,2631,2623,2613,2606,2598,2592,2585,2581,2577,2574,2568,2566,2559,2556,2550,2546,2540,2534,2527,2523,2520,2524,2530,2544,2560,2583,2608,2641,2674,2710,2745,2777,2805,2831,2849,2864,2872,2877,2878,2877,2873,2870,2865,2860,2853,2847,2840,2834,2827,2820,2813,2806,2797,2790,2781,2774,2767,2759,2750,2740,2730,2719,2707,2695,2683,2670,2657,2643,2632,2620,2609,2598,2591,2581,2575,2568,2563,2557,2552,2547,2544,2540,2535,2529,2526,2519,2513,2507,2503,2498,2498,2499,2507,2519,2537,2557,2586,2616,2650,2683,2718,2749,2779,2801,2821,2834,2845,2848,2850,2847,2847,2842,2837,2830,2824,2816,2811,2803,2798,2791,2787,2778,2775,2768,2765,2759,2755,2747,2742,2733,2725,2713,2703,2689,2679,2666,2656,2644,2634,2622,2615,2607,2602,2595,2591,2586,2583,2578,2575,2572,2571,2566,2562,2558,2554,2549,2546,2543,2547,2551,2562,2576,2597,2620,2647,2676,2707,2737,2768,2793,2817,2832,2845,2851,2855,2855,2853,2849,2844,2837,2829,2821,2815,2807,2801,2795,2788,2782,2778,2774,2769,2765,2761,2757,2751,2743,2734,2726,2715,2704,2693,2681,2668,2656,2645,2634,2624,2616,2607,2599,2593,2588,2583,2579,2575,2572,2567,2566,2561,2558,2553,2549,2543,2539,2534,2532,2532,2538,2548,2565,2584,2611,2640,2675,2709,2747,2782,2816,2842,2866,2882,2895,2901,2907,2907,2906,2903,2900,2892,2888,2881,2877,2869,2864,2855,2849,2840,2833,2824,2816,2807,2801,2791,2784,2772,2762,2749,2738,2725,2713,2697,2685,2669,2657,2641,2632,2620,2612,2601,2595,2585,2580,2574,2570,2564,2562,2557,2553,2546,2543,2535,2533,2526,2520,2512,2510,2506,2508,2513,2526,2544,2568,2594,2627,2660,2697,2731,2767,2797,2824,2844,2860,2869,2875,2878,2878,2877,2876,2871,2867,2862,2856,2850,2844,2836,2828,2821,2813,2804,2797,2788,2781,2772,2764,2756,2746,2735,2723,2710,2698,2686,2672,2658,2644,2633,2621,2609,2599,2590,2580,2573,2566,2560,2554,2549,2542,2537,2534,2530,2523,2519,2513,2508,2502,2498,2492,2492,2492,2497,2509,2527,2549,2577,2607,2642,2677,2714,2747,2780,2806,2829,2844,2856,2861,2866,2865,2864,2860,2859,2851,2847,2839,2835,2826,2820,2812,2807,2799,2794,2785,2780,2771,2766,2757,2751,2741,2733,2720,2710,2695,2684,2669,2658,2643,2632,2618,2606,2592,2584,2572,2566,2557,2551,2544,2540,2534,2532,2527,2524,2519,2516,2509,2505,2498,2495,2492,2495,2500,2511,2525,2545,2566,2594,2623,2655,2683,2712,2736,2759,2774,2788,2796,2803,2804,2804,2802,2801,2797,2792,2786,2782,2776,2772,2767,2766,2763,2760,2758,2757,2756,2754,2751,2751,2747,2741,2735,2729,2720,2711,2703,2694,2685,2675,2665,2656,2648,2641,2633,2626,2619,2612,2607,2600,2595,2590,2586,2582,2581,2584,2592,2604,2621,2640,2666,2690,2720,2748,2778,2805,2830,2847,2862,2870,2878,2878,2878,2873,2871,2863,2857,2848,2842,2834,2829,2822,2816,2808,2804,2796,2792,2783,2778,2770,2765,2755,2748,2738,2729,2717,2706,2693,2683,2669,2659,2645,2635,2621,2613,2600,2592,2582,2575,2566,2560,2552,2546,2538,2533,2525,2522,2517,2519,2521,2531,2542,2562,2585,2614,2643,2678,2709,2743,2772,2800,2821,2839,2852,2861,2865,2868,2866,2867,2862,2860,2855,2853,2846,2840,2834,2827,2818,2812,2803,2797,2788,2780,2772,2766,2758,2750,2740,2731,2721,2712,2700,2689,2677,2665,2653,2642,2631,2620,2610,2600,2589,2579,2570,2562,2553,2546,2537,2529,2521,2516,2513,2513,2518,2527,2541,2558,2579,2604,2631,2659,2687,2711,2736,2755,2770,2779,2785,2786,2787,2783,2778,2772,2767,2758,2752,2744,2737,2729,2725,2716,2711,2704,2701,2695,2691,2685,2681,2677,2673,2666,2661,2653,2647,2635,2628,2615,2608,2595,2586,2575,2567,2556,2549,2538,2532,2522,2518,2510,2508,2501,2497,2491,2493,2492,2501,2508,2524,2542,2567,2591,2623,2654,2689,2719,2751,2775,2799,2814,2826,2832,2838,2837,2838,2834,2830,2824,2820,2813,2808,2799,2793,2784,2780,2771,2764,2756,2752,2745,2739,2733,2730,2722,2717,2707,2701,2691,2684,2673,2667,2657,2649,2638,2630,2623,2618,2609,2602,2595,2589,2581,2577,2570,2568,2566,2569,2575,2588,2603,2623,2647,2675,2703,2733,2761,2789,2814,2835,2852,2865,2872,2875,2876,2875,2871,2867,2861,2853,2845,2834,2824,2814,2805,2796,2787,2777,2768,2759,2752,2744,2738,2731,2726,2719,2709,2699,2690,2680,2671,2659,2649,2637,2627,2615,2606,2595,2587,2577,2568,2557,2548,2537,2530,2522,2520,2519,2524,2533,2551,2567,2592,2617,2645,2673,2701,2724,2748,2765,2780,2786,2793,2795,2796,2793,2792,2787,2784,2778,2773,2765,2762,2753,2749,2741,2738,2730,2726,2720,2717,2712,2711,2705,2702,2694,2690,2681,2675,2665,2659,2648,2640,2629,2622,2612,2605,2595,2589,2581,2575,2566,2561,2554,2552,2548,2551,2556,2567,2581,2602,2625,2654,2682,2713,2742,2774,2799,2823,2840,2854,2863,2869,2871,2873,2871,2869,2865,2862,2856,2852,2845,2837,2829,2821,2810,2801,2791,2781,2772,2763,2753,2744,2736,2728,2720,2711,2701,2690,2680,2668,2656,2645,2635,2624,2613,2602,2592,2583,2573,2563,2556,2549,2540,2532,2528,2523,2523,2528,2538,2552,2572,2594,2621,2649,2680,2709,2739,2764,2788,2804,2818,2825,2829,2830,2832,2828,2826,2821,2818,2810,2804,2797,2790,2782,2774,2764,2756,2745,2739,2729,2723,2715,2710,2701,2695,2686,2680,2671,2663,2652,2645,2633,2623,2612,2605,2595,2588,2577,2571,2561,2556,2548,2543,2536,2533,2527,2526,2526,2535,2544,2561,2579,2604,2630,2660,2689,2721,2749,2776,2796,2815,2826,2836,2837,2840,2837,2834,2829,2826,2817,2813,2805,2798,2789,2783,2775,2769,2763,2757,2748,2743,2736,2731,2725,2718,2710,2703,2694,2685,2672,2661,2649,2638,2627,2616,2604,2594,2584,2575,2566,2559,2553,2548,2541,2536,2530,2525,2520,2515,2509,2507,2508,2512,2522,2537,2557,2582,2613,2645,2681,2716,2751,2784,2813,2836,2854,2867,2875,2878,2879,2879,2877,2874,2869,2863,2859,2852,2845,2837,2831,2822,2814,2804,2795,2786,2778,2767,2761,2752,2745,2734,2725,2714,2702,2689,2679,2665,2654,2640,2628,2616,2605,2593,2584,2574,2566,2557,2550,2541,2536,2527,2521,2512,2507,2499,2494,2489,2488,2490,2500,2513,2533,2557,2587,2619,2656,2693,2732,2766,2798,2823,2844,2858,2870,2873,2877,2875,2873,2869,2866,2859,2853,2845,2839,2830,2823,2813,2804,2794,2785,2774,2767,2758,2751,2741,2734,2725,2716,2705,2695,2682,2670,2655,2643,2628,2617,2605,2593,2581,2570,2559,2550,2540,2532,2524,2517,2509,2502,2495,2489,2483,2477,2470,2465,2461,2459,2463,2473,2487,2509,2536,2567,2604,2643,2684,2726,2767,2801,2831,2853,2871,2883,2890,2893,2893,2891,2886,2880,2874,2867,2859,2850,2842,2833,2823,2813,2805,2795,2786,2777,2770,2762,2753,2745,2736,2725,2715,2702,2690,2676,2661,2645,2632,2617,2602,2588,2575,2562,2551,2539,2530,2520,2514,2506,2501,2493,2488,2480,2475,2469,2464,2457,2453,2451,2456,2465,2483,2505,2535,2570,2609,2650,2694,2738,2780,2815,2846,2869,2887,2898,2905,2907,2908,2904,2900,2894,2887,2878,2872,2863,2855,2846,2837,2827,2819,2810,2802,2793,2786,2777,2769,2761,2753,2742,2732,2719,2707,2693,2679,2664,2649,2633,2619,2603,2592,2579,2566,2555,2546,2537,2529,2519,2512,2505,2497,2490,2487,2485,2490,2500,2515,2538,2568,2601,2639,2679,2720,2761,2800,2833,2861,2883,2898,2908,2912,2911,2909,2905,2898,2892,2883,2873,2863,2853,2842,2833,2823,2813,2804,2797,2787,2779,2772,2765,2758,2749,2740,2731,2719,2707,2692,2678,2662,2647,2631,2616,2602,2589,2576,2564,2553,2544,2535,2528,2520,2515,2509,2502,2495,2490,2484,2478,2471,2467,2464,2466,2473,2489,2510,2541,2574,2613,2656,2702,2749,2794,2836,2871,2899,2922,2936,2947,2951,2952,2949,2946,2939,2932,2925,2915,2905,2896,2886,2876,2864,2852,2841,2831,2821,2810,2801,2792,2783,2773,2762,2752,2739,2727,2713,2698,2683,2668,2653,2636,2621,2607,2593,2580,2569,2558,2548,2538,2528,2519,2512,2505,2498,2490,2484,2477,2470,2465,2461,2461,2467,2479,2497,2521,2553,2588,2628,2671,2716,2760,2801,2836,2864,2887,2903,2914,2920,2921,2919,2915,2911,2903,2896,2888,2878,2870,2860,2850,2840,2831,2822,2811,2802,2795,2785,2776,2767,2758,2748,2738,2725,2711,2698,2683,2668,2652,2636,2621,2606,2591,2576,2563,2551,2540,2529,2519,2510,2502,2495,2487,2480,2475,2468,2463,2457,2452,2450,2452,2459,2472,2493,2518,2549,2586,2624,2666,2711,2754,2791,2826,2854,2875,2889,2897,2902,2903,2899,2895,2888,2881,2872,2863,2854,2846,2835,2826,2817,2809,2799,2790,2782,2775,2767,2758,2750,2740,2731,2721,2709,2698,2684,2669,2653,2639,2624,2611,2597,2584,2572,2561,2550,2541,2532,2525,2517,2510,2504,2498,2493,2486,2481,2478,2478,2482,2491,2508,2529,2556,2587,2623,2661,2702,2742,2780,2814,2843,2865,2882,2893,2900,2901,2899,2896,2892,2884,2876,2866,2857,2848,2839,2829,2821,2812,2803,2795,2788,2782,2775,2768,2762,2755,2745,2735,2725,2713,2701,2686,2671,2658,2642,2627,2613,2600,2586,2575,2564,2555,2545,2538,2530,2524,2518,2513,2507,2502,2498,2497,2496,2502,2513,2532,2554,2584,2616,2653,2692,2734,2772,2811,2843,2872,2893,2909,2918,2923,2924,2923,2919,2916,2908,2902,2893,2886,2876,2868,2858,2851,2840,2831,2820,2812,2802,2793,2782,2774,2763,2754,2741,2731,2718,2705,2691,2677,2662,2649,2633,2621,2608,2596,2583,2574,2564,2555,2546,2540,2530,2525,2516,2510,2502,2497,2491,2490,2490,2496,2506,2523,2545,2574,2603,2640,2676,2715,2751,2787,2814,2839,2858,2872,2880,2886,2886,2886,2882,2877,2869,2865,2858,2851,2842,2834,2824,2816,2806,2797,2788,2780,2770,2763,2755,2747,2738,2728,2716,2706,2695,2683,2670,2657,2644,2631,2618,2607,2596,2586,2576,2566,2558,2550,2543,2535,2528,2524,2521,2519,2522,2529,2542,2560,2583,2610,2641,2671,2704,2737,2768,2793,2816,2832,2845,2851,2855,2855,2855,2851,2845,2840,2834,2826,2820,2810,2803,2793,2785,2777,2769,2760,2752,2743,2736,2728,2721,2711,2703,2692,2682,2669,2659,2646,2636,2623,2613,2600,2591,2580,2571,2561,2554,2544,2538,2529,2523,2517,2515,2514,2519,2527,2544,2562,2586,2612,2642,2672,2705,2735,2764,2786,2807,2819,2830,2835,2838,2836,2836,2830,2827,2819,2814,2805,2797,2789,2781,2770,2763,2751,2744,2734,2727,2718,2712,2704,2696,2687,2680,2670,2661,2649,2638,2625,2614,2601,2590,2579,2570,2560,2552,2542,2535,2528,2521,2515,2511,2505,2500,2493,2490,2488,2491,2497,2509,2527,2549,2575,2606,2638,2673,2707,2741,2771,2795,2815,2829,2838,2843,2846,2845,2844,2840,2836,2830,2824,2817,2811,2803,2795,2786,2779,2769,2761,2752,2745,2736,2731,2724,2719,2710,2703,2692,2683,2673,2663,2652,2642,2631,2621,2611,2603,2593,2585,2578,2572,2564,2560,2553,2548,2540,2537,2530,2528,2527,2531,2540,2555,2570,2595,2619,2650,2679,2713,2743,2773,2796,2817,2830,2842,2845,2849,2847,2846,2839,2835,2827,2821,2813,2806,2797,2791,2781,2776,2767,2763,2754,2749,2741,2735,2727,2722,2712,2703,2691,2681,2667,2658,2644,2632,2620,2609,2598,2590,2579,2572,2563,2557,2549,2544,2539,2534,2527,2522,2516,2512,2507,2505,2505,2511,2520,2537,2558,2584,2613,2648,2683,2720,2756,2790,2819,2843,2861,2875,2883,2889,2891,2891,2890,2887,2882,2878,2873,2866,2858,2850,2842,2833,2823,2812,2803,2792,2782,2772,2763,2753,2743,2731,2720,2710,2698,2685,2673,2660,2650,2636,2626,2613,2604,2593,2583,2574,2568,2559,2553,2546,2541,2534,2530,2523,2519,2510,2504,2497,2491,2485,2483,2483,2489,2500,2519,2541,2571,2603,2642,2680,2721,2758,2794,2822,2847,2864,2878,2885,2891,2892,2892,2888,2886,2880,2876,2868,2863,2853,2846,2835,2826,2813,2804,2791,2782,2770,2762,2749,2741,2730,2721,2708,2698,2685,2673,2658,2646,2632,2621,2606,2597,2583,2574,2563,2555,2545,2538,2530,2524,2517,2511,2504,2498,2492,2486,2479,2474,2465,2459,2452,2448,2444,2447,2453,2468,2487,2514,2545,2583,2622,2665,2708,2751,2788,2822,2848,2869,2882,2892,2897,2899,2896,2893,2888,2882,2874,2867,2859,2851,2844,2835,2827,2820,2813,2804,2797,2791,2784,2776,2768,2758,2749,2737,2725,2711,2698,2683,2669,2655,2642,2628,2616,2605,2595,2584,2577,2567,2560,2553,2548,2540,2534,2527,2521,2514,2510,2504,2504,2508,2518,2532,2555,2580,2614,2648,2688,2727,2767,2802,2836,2860,2881,2894,2904,2907,2909,2905,2902,2893,2886,2876,2869,2858,2851,2839,2833,2821,2814,2804,2797,2788,2782,2772,2766,2755,2749,2735,2726,2712,2700,2684,2671,2654,2639,2623,2610,2594,2582,2569,2558,2547,2540,2530,2525,2517,2513,2505,2502,2496,2493,2487,2485,2477,2473,2466,2460,2452,2448,2444,2447,2454,2471,2492,2523,2558,2600,2645,2695,2743,2792,2836,2874,2904,2929,2945,2956,2963,2965,2963,2962,2957,2953,2946,2938,2929,2920,2910,2900,2890,2879,2867,2855,2843,2831,2821,2811,2800,2789,2776,2763,2750,2736,2721,2705,2689,2672,2657,2641,2625,2609,2598,2584,2573,2561,2552,2542,2535,2527,2521,2514,2510,2501,2496,2488,2482,2475,2470,2460,2454,2446,2439,2434,2436,2441,2457,2477,2505,2537,2580,2622,2671,2719,2768,2811,2851,2881,2908,2924,2937,2943,2947,2944,2942,2934,2930,2921,2914,2902,2895,2883,2873,2861,2851,2838,2828,2815,2806,2795,2788,2775,2766,2753,2741,2726,2714,2698,2683,2664,2650,2630,2615,2596,2584,2567,2554,2540,2530,2519,2511,2502,2497,2489,2484,2476,2475,2469,2465,2458,2453,2446,2440,2430,2426,2422,2422,2426,2440,2460,2489,2522,2563,2607,2656,2703,2752,2799,2838,2872,2898,2916,2930,2936,2939,2938,2936,2931,2924,2914,2905,2894,2882,2871,2859,2847,2836,2825,2815,2806,2797,2789,2782,2775,2766,2760,2751,2740,2728,2716,2701,2686,2670,2654,2638,2624,2607,2592,2579,2568,2557,2547,2538,2531,2523,2515,2507,2502,2495,2491,2490,2495,2502,2517,2538,2564,2596,2631,2669,2711,2751,2790,2822,2852,2874,2892,2902,2909,2909,2909,2900,2893,2879,2869,2855,2845,2831,2820,2807,2799,2787,2782,2774,2770,2764,2762,2754,2751,4,4,0
2776,2771,2760,2753,2741,2730,2716,2702,2684,2671,2654,2641,2624,2609,2594,2582,2566,2555,2542,2534,2522,2519,2516,2523,2535,2555,2579,2615,2649,2691,2732,2777,2820,2861,2893,2920,2939,2952,2956,2960,2955,2949,2937,2926,2911,2898,2882,2870,2856,2843,2829,2819,2808,2799,2789,2781,2771,2764,2754,2745,2734,2723,2709,2695,2679,2664,2647,2632,2615,2597,2581,2565,2550,2537,2524,2512,2503,2499,2501,2509,2526,2550,2580,2617,2659,2705,2752,2799,2842,2880,2913,2938,2957,2967,2972,2971,2965,2956,2946,2933,2921,2906,2891,2874,2861,2846,2833,2819,2807,2793,2781,2769,2760,2749,2738,2725,2712,2696,2683,2665,2651,2635,2620,2601,2585,2567,2554,2539,2526,2511,2500,2486,2476,2467,2463,2462,2471,2482,2505,2532,2568,2606,2649,2695,2742,2785,2825,2857,2886,2903,2918,2922,2924,2920,2914,2905,2898,2885,2874,2859,2847,2831,2819,2802,2788,2773,2760,2743,2732,2718,2708,2693,2682,2667,2654,2638,2623,2606,2591,2573,2558,2541,2526,2509,2496,2482,2471,2459,2450,2438,2431,2420,2413,2405,2399,2392,2389,2387,2391,2398,2414,2434,2465,2499,2540,2583,2628,2674,2722,2761,2798,2828,2851,2866,2875,2878,2879,2875,2868,2858,2849,2837,2826,2814,2802,2788,2776,2764,2752,2740,2727,2714,2703,2692,2681,2670,2658,2646,2632,2619,2606,2592,2578,2563,2550,2536,2523,2511,2498,2487,2476,2468,2458,2451,2444,2438,2431,2427,2422,2418,2414,2411,2406,2404,2402,2405,2411,2424,2441,2467,2497,2535,2575,2619,2663,2710,2753,2791,2823,2850,2868,2882,2887,2890,2886,2883,2873,2864,2855,2847,2836,2827,2815,2807,2795,2787,2775,2769,2760,2754,2744,2736,2725,2717,2705,2695,2683,2672,2657,2645,2630,2616,2601,2590,2575,2566,2554,2545,2535,2528,2519,2512,2504,2500,2492,2490,2483,2481,2479,2485,2493,2512,2533,2563,2594,2634,2671,2716,2756,2798,2831,2862,2884,2903,2913,2919,2919,2918,2912,2905,2895,2887,2876,2866,2855,2845,2833,2824,2811,2802,2789,2781,2770,2760,2749,2740,2729,2718,2704,2692,2677,2665,2649,2633,2617,2603,2587,2574,2561,2548,2537,2527,2516,2508,2502,2496,2489,2482,2475,2471,2467,2466,2467,2474,2486,2506,2532,2563,2601,2642,2687,2731,2777,2820,2857,2888,2913,2931,2941,2946,2949,2947,2944,2937,2926,2916,2907,2896,2886,2876,2866,2852,2842,2827,2818,2806,2796,2783,2771,2757,2745,2732,2719,2704,2693,2677,2662,2646,2632,2616,2603,2587,2575,2558,2545,2531,2521,2510,2502,2492,2486,2477,2473,2466,2458,2455,2449,2446,2440,2440,2441,2448,2459,2481,2506,2541,2577,2623,2666,2717,2763,2810,2848,2885,2910,2932,2943,2952,2953,2955,2951,2947,2938,2931,2920,2911,2899,2892,2880,2871,2857,2845,2831,2820,2806,2795,2782,2770,2754,2742,2726,2713,2695,2682,2664,2649,2631,2615,2599,2584,2568,2554,2538,2527,2514,2505,2494,2486,2476,2471,2462,2457,2451,2446,2441,2437,2430,2425,2419,2415,2409,2409,2409,2414,2426,2446,2475,2511,2552,2599,2648,2701,2751,2801,2846,2884,2912,2932,2947,2953,2956,2956,2951,2943,2934,2924,2914,2905,2895,2883,2873,2860,2849,2839,2829,2819,2808,2795,2785,2774,2764,2752,2740,2725,2712,2696,2679,2663,2648,2631,2616,2600,2585,2570,2559,2546,2535,2524,2516,2508,2503,2493,2488,2481,2479,2472,2468,2462,2460,2457,2459,2463,2478,2496,2523,2553,2593,2636,2685,2731,2779,2823,2867,2901,2929,2948,2963,2968,2970,2965,2962,2951,2942,2928,2916,2903,2890,2877,2867,2855,2846,2834,2827,2816,2808,2798,2790,2779,2771,2757,2744,2729,2716,2698,2684,2665,2649,2630,2615,2595,2580,2564,2551,2536,2526,2513,2504,2492,2485,2476,2470,2462,2458,2456,2462,2472,2493,2518,2552,2591,2636,2684,2737,2789,2842,2885,2925,2957,2981,2995,3006,3009,3008,3002,2994,2980,2968,2954,2939,2924,2910,2895,2881,2865,2852,2838,2826,2814,2804,2792,2781,2768,2755,2742,2728,2713,2695,2678,2661,2642,2624,2605,2586,2568,2551,2535,2519,2505,2491,2478,2467,2457,2448,2441,2435,2431,2429,2433,2442,2460,2484,2516,2557,2602,2650,2703,2756,2810,2858,2901,2937,2965,2983,2998,3004,3007,3003,2998,2989,2979,2967,2956,2942,2930,2913,2899,2884,2872,2857,2845,2831,2820,2807,2797,2784,2774,2761,2749,2733,2718,2699,2683,2663,2645,2623,2604,2584,2565,2544,2527,2509,2494,2478,2465,2450,2440,2428,2418,2407,2399,2391,2384,2381,2387,2398,2419,2444,2481,2520,2569,2618,2673,2727,2780,2825,2865,2896,2923,2938,2948,2951,2954,2947,2944,2935,2927,2917,2908,2896,2887,2879,2870,2859,2853,2842,2832,2821,2812,2799,2787,2772,2757,2740,2723,2701,2682,2663,2644,2622,2601,2581,2563,2543,2524,2507,2491,2475,2461,2448,2437,2425,2416,2406,2400,2393,2387,2384,2384,2389,2402,2421,2449,2483,2521,2566,2614,2662,2711,2757,2798,2831,2857,2876,2888,2895,2894,2891,2885,2876,2867,2857,2847,2838,2828,2821,2812,2805,2798,2793,2786,2781,2776,2769,2761,2753,2742,2731,2721,2709,2692,2678,2661,2645,2629,2613,2594,2578,2561,2545,2529,2515,2500,2486,2471,2461,2450,2442,2432,2426,2420,2419,2419,2427,2442,2466,2494,2529,2569,2614,2657,2706,2750,2796,2832,2865,2885,2901,2908,2910,2907,2905,2894,2886,2872,2863,2850,2840,2829,2821,2812,2806,2797,2792,2783,2776,2768,2763,2754,2747,2737,2729,2716,2704,2689,2677,2663,2649,2632,2619,2602,2588,2573,2560,2547,2538,2525,2516,2503,2496,2486,2480,2471,2466,2465,2470,2480,2500,2522,2557,2594,2638,2685,2737,2787,2835,2876,2913,2938,2960,2973,2980,2981,2979,2970,2962,2951,2939,2927,2916,2903,2892,2881,2871,2859,2849,2839,2832,2825,2818,2811,2804,2798,2792,2784,2777,2769,2762,2755,2745,2735,2727,2719,2710,2699,2691,2681,2674,2665,2653,2645,2634,2623,2611,2598,2586,2574,2565,2556,2551,2555,2562,2581,2603,2632,2666,2704,2744,2784,2822,2856,2881,2905,2916,2924,2923,2919,2907,2895,2879,2866,2850,2835,2817,2802,2786,2773,2758,2749,2737,2727,2714,2704,2693,2683,2671,2662,2649,2640,2625,2611,2596,2582,2565,2552,2534,2521,2504,2492,2476,2465,2452,2443,2432,2424,2413,2408,2398,2394,2391,2397,2405,2424,2445,2478,2510,2551,2590,2636,2678,2719,2752,2783,2803,2819,2826,2832,2829,2824,2814,2803,2790,2780,2765,2752,2737,2724,2711,2702,2692,2685,2678,2673,2663,2659,2653,2647,2639,2631,2618,2608,2595,2583,2568,2556,2542,2528,2514,2500,2488,2477,2465,2455,2445,2435,2428,2427,2431,2441,2458,2484,2515,2553,2595,2640,2687,2734,2778,2818,2852,2878,2897,2909,2914,2915,2913,2907,2899,2887,2876,2863,2851,2838,2825,2813,2801,2789,2777,2766,2756,2744,2736,2725,2713,2702,2690,2678,2666,2652,2639,2623,2608,2591,2576,2561,2548,2534,2522,2508,2499,2488,2478,2469,2463,2455,2454,2451,2455,2466,2484,2506,2538,2575,2618,2662,2708,2750,2797,2835,2870,2893,2915,2927,2934,2935,2934,2929,2927,2917,2909,2897,2888,2875,2865,2852,2843,2830,2819,2804,2795,2783,2774,2762,2752,2740,2729,2713,2701,2686,2672,2654,2641,2624,2608,2592,2577,2561,2549,2533,2522,2508,2499,2486,2478,2468,2462,2454,2449,2441,2438,2433,2434,2436,2447,2463,2486,2515,2551,2590,2636,2681,2727,2771,2814,2849,2878,2898,2912,2920,2924,2922,2918,2911,2903,2891,2880,2868,2858,2845,2835,2823,2813,2801,2791,2779,2770,2761,2751,2741,2731,2719,2708,2695,2682,2667,2653,2638,2623,2608,2594,2579,2564,2550,2538,2527,2516,2507,2498,2491,2484,2476,2470,2465,2461,2460,2461,2467,2478,2498,2523,2555,2592,2634,2676,2722,2765,2808,2843,2875,2897,2913,2921,2924,2922,2918,2910,2900,2887,2877,2863,2851,2838,2828,2818,2809,2799,2789,2780,2773,2762,2755,2746,2738,2725,2713,2698,2686,2670,2653,2636,2621,2603,2588,2570,2558,2541,2528,2515,2506,2494,2486,2476,2469,2461,2458,2454,2460,2467,2483,2503,2533,2566,2610,2652,2703,2751,2800,2841,2879,2910,2935,2950,2962,2963,2963,2957,2950,2939,2929,2918,2905,2891,2879,2865,2854,2840,2829,2814,2803,2792,2782,2769,2760,2747,2736,2720,2707,2690,2677,2660,2644,2626,2609,2592,2578,2561,2547,2533,2521,2508,2496,2484,2475,2466,2459,2451,2444,2438,2435,2435,2443,2457,2479,2509,2545,2585,2631,2680,2732,2784,2833,2873,2907,2935,2954,2965,2971,2972,2969,2962,2950,2938,2928,2915,2901,2888,2874,2859,2846,2834,2820,2809,2796,2782,2769,2758,2746,2733,2720,2706,2690,2675,2658,2644,2628,2612,2593,2577,2560,2546,2529,2516,2503,2492,2479,2470,2461,2454,2445,2440,2433,2428,2421,2418,2412,2410,2409,2416,2427,2447,2471,2505,2544,2592,2641,2696,2746,2799,2843,2883,2915,2939,2955,2965,2963,2961,2951,2943,2931,2920,2906,2893,2878,2867,2851,2842,2829,2818,2806,2796,2784,2773,2761,2752,2738,2727,2711,2699,2682,2668,2650,2635,2617,2603,2585,2573,2555,2542,2527,2517,2505,2495,2485,2478,2468,2464,2455,2451,2443,2441,2437,2438,2441,2453,2470,2496,2525,2563,2603,2650,2698,2748,2793,2837,2872,2901,2920,2934,2939,2940,2936,2927,2915,2903,2889,2875,2859,2846,2833,2821,2810,2800,2790,2780,2770,2763,2755,2748,2739,2731,2721,2709,2697,2684,2670,2656,2641,2626,2610,2596,2581,2567,2555,2543,2532,2521,2512,2503,2495,2488,2482,2474,2469,2468,2473,2481,2497,2519,2549,2583,2625,2670,2718,2765,2809,2849,2885,2914,2934,2946,2954,2953,2948,2939,2930,2918,2905,2890,2876,2860,2849,2834,2821,2810,2799,2788,2780,2769,2761,2751,2743,2732,2722,2709,2700,2684,2671,2655,2641,2623,2609,2593,2578,2562,2551,2535,2526,2514,2505,2494,2486,2476,2472,2464,2462,2456,2457,2456,2464,2478,2501,2530,2567,2608,2655,2702,2756,2804,2854,2896,2933,2959,2982,2993,3001,3001,2998,2989,2982,2969,2959,2944,2933,2918,2907,2891,2879,2867,2855,2842,2831,2816,2805,2793,2782,2767,2757,2741,2726,2709,2693,2675,2659,2641,2624,2605,2590,2572,2557,2542,2529,2516,2505,2494,2486,2478,2471,2463,2458,2453,2449,2445,2442,2438,2438,2441,2451,2467,2493,2526,2566,2611,2661,2713,2769,2825,2875,2919,2954,2982,3001,3013,3019,3019,3015,3006,2995,2984,2971,2958,2944,2930,2914,2900,2885,2872,2858,2845,2830,2817,2804,2790,2777,2763,2749,2735,2720,2702,2685,2671,2652,2635,2616,2599,2581,2566,2547,2533,2518,2505,2490,2479,2468,2460,2449,2442,2434,2429,2422,2418,2412,2409,2404,2407,2410,2423,2439,2467,2501,2543,2590,2645,2699,2759,2812,2864,2908,2947,2975,2994,3005,3011,3008,3003,2993,2984,2970,2958,2941,2928,2913,2898,2883,2870,2856,2843,2828,2817,2802,2792,2778,2767,2753,2740,2723,2710,2692,2677,2659,2643,2623,2606,2587,2571,2552,2538,2520,2507,2492,2480,2466,2457,2446,2437,2429,2422,2415,2410,2402,2397,2391,2388,2385,2391,2400,2418,2443,2477,2518,2566,2617,2673,2729,2784,2835,2882,2920,2949,2968,2980,2985,2985,2981,2973,2961,2948,2931,2914,2897,2882,2867,2853,2840,2826,2815,2805,2796,2788,2780,2772,2764,2752,2740,2730,2716,2700,2684,2665,2647,2629,2611,2592,2577,2560,2543,2528,2514,2500,2490,2480,2471,2461,2454,2446,2441,2437,2441,2447,2462,2483,2514,2550,2594,2641,2695,2748,2803,2852,2898,2935,2966,2984,3000,3004,3004,2996,2989,2974,2959,2942,2927,2908,2893,2873,2859,2843,2830,2815,2806,2794,2786,2775,2769,2758,2749,2737,2726,2710,2696,2678,2662,2642,2624,2603,2585,2565,2548,2528,2513,2496,2483,2469,2458,2446,2438,2429,2425,2420,2423,2429,2446,2466,2500,2537,2584,2636,2692,2749,2809,2863,2916,2957,2990,3012,3031,3038,3040,3034,3026,3015,3001,2984,2969,2952,2937,2919,2903,2887,2873,2857,2842,2828,2814,2800,2788,2773,2761,2745,2731,2714,2699,2679,2661,2643,2624,2603,2584,2565,2546,2526,2510,2494,2479,2466,2455,2444,2434,2425,2417,2409,2403,2399,2397,2400,2410,2426,2452,2488,2530,2578,2632,2690,2750,2809,2864,2913,2955,2989,3011,3026,3032,3034,3029,3021,3009,2997,2982,2967,2950,2934,2917,2902,2884,2869,2854,2840,2823,2811,2796,2782,2768,2754,2740,2726,2710,2694,2675,2659,2638,2620,2600,2580,2559,2540,2521,2505,2487,2474,2457,2446,2433,2423,2414,2407,2399,2392,2384,2379,2371,2370,2368,2373,2385,2407,2434,2473,2518,2571,2625,2687,2747,2806,2859,2908,2943,2974,2990,3002,3004,3004,2994,2985,2972,2960,2943,2927,2909,2894,2876,2863,2847,2832,2817,2804,2787,2776,2763,2752,2738,2725,2708,2693,2676,2660,2642,2626,2606,2588,2568,2550,2532,2517,2500,2485,2470,2458,2445,2436,2424,2416,2408,2402,2395,2389,2384,2383,2385,2394,2409,2433,2466,2505,2551,2604,2660,2719,2776,2832,2880,2921,2952,2975,2987,2992,2990,2983,2971,2957,2939,2921,2903,2883,2865,2849,2834,2818,2805,2792,2781,2770,2761,2750,2740,2729,2716,2702,2689,2673,2656,2637,2620,2601,2582,2564,2545,2526,2511,2493,2479,2465,2452,2439,2429,2419,2411,2404,2400,2397,2402,2412,2431,2459,2497,2538,2591,2645,2705,2763,2821,2873,2920,2955,2982,2997,3007,3008,3003,2993,2980,2962,2945,2925,2908,2888,2870,2852,2834,2817,2803,2788,2777,2763,2752,2737,2729,2716,2702,2687,2674,2656,2641,2622,2605,2583,2566,2545,2529,2510,2494,2476,2463,2446,2433,2420,2412,2402,2394,2384,2380,2374,2373,2373,2384,2400,2427,2459,2503,2553,2612,2672,2739,2801,2862,2915,2962,2998,3026,3040,3049,3046,3041,3029,3017,3001,2985,2965,2947,2928,2910,2891,2874,2857,2841,2823,2807,2792,2778,2762,2748,2733,2720,2703,2688,2671,2654,2636,2617,2598,2579,2559,2539,2520,2502,2483,2469,2454,2440,2428,2415,2405,2396,2389,2382,2375,2370,2366,2365,2372,2386,2409,2442,2484,2533,2589,2651,2716,2781,2846,2902,2951,2992,3020,3038,3048,3049,3045,3033,3019,3003,2985,2964,2944,2923,2905,2885,2868,2848,2831,2814,2799,2783,2771,2757,2745,2730,2717,2700,2685,2668,2651,2631,2613,2592,2573,2550,2531,2511,2494,2475,2461,2444,2429,2415,2404,2393,2385,2375,2368,2360,2355,2348,2346,2345,2350,2359,2379,2405,2443,2486,2540,2596,2662,2725,2792,2851,2905,2947,2983,3004,3021,3025,3025,3014,3001,2981,2964,2943,2924,2903,2885,2866,2850,2833,2822,2808,2798,2787,2779,2767,2760,2749,2741,2727,2715,2700,2685,2667,2648,2628,2609,2588,2569,2547,2529,2511,2493,2476,2462,2449,2437,2425,2415,2404,2398,2396,2401,2412,2433,2465,2505,2551,2606,2665,2728,2791,2851,2904,2950,2987,3011,3027,3034,3032,3023,3010,2993,2975,2954,2933,2913,2892,2872,2853,2836,2821,2806,2792,2780,2771,2759,2749,2739,2727,2715,2701,2686,2672,2653,2636,2613,2592,2571,2551,2529,2512,2491,2475,2456,2442,2426,2414,2402,2392,2384,2381,2382,2396,2414,2445,2484,2534,2589,2652,2715,2784,2847,2906,2956,2998,3026,3047,3055,3056,3049,3040,3025,3008,2986,2966,2943,2923,2902,2882,2863,2847,2828,2812,2795,2782,2766,2754,2740,2728,2713,2699,2682,2666,2649,2632,2609,2592,2571,2551,2528,2510,2490,2472,2455,2439,2423,2412,2397,2388,2376,2371,2362,2360,2360,2367,2382,2410,2444,2490,2541,2601,2664,2732,2798,2863,2919,2968,3004,3031,3045,3054,3051,3045,3031,3016,2998,2979,2957,2937,2916,2897,2877,2860,2841,2826,2810,2795,2781,2768,2754,2742,2727,2713,2696,2678,2658,2638,2616,2595,2573,2552,2528,2506,2485,2465,2448,2431,2416,2401,2387,2375,2365,2357,2349,2342,2335,2329,2327,2331,2344,2363,2394,2433,2481,2538,2603,2671,2742,2811,2877,2934,2982,3018,3044,3059,3065,3061,3052,3038,3022,3000,2980,2958,2937,2914,2894,2874,2857,2837,2822,2805,2792,2777,2764,2749,2737,2721,2707,2689,2674,2654,2634,2612,2590,2566,2545,2521,2501,2479,2460,2440,2425,2408,2395,2383,2374,2363,2356,2346,2343,2341,2348,2360,2385,2419,2462,2512,2572,2635,2705,2772,2838,2894,2945,2984,3012,3027,3035,3033,3025,3010,2993,2972,2952,2928,2906,2883,2864,2843,2827,2810,2797,2783,2774,2764,2757,2748,2742,2732,2723,2710,2698,2681,2664,2644,2626,2604,2584,2562,2542,2521,2504,2484,2469,2454,2440,2427,2418,2410,2409,2414,2429,2451,2485,2526,2577,2634,2698,2764,2832,2896,2951,2999,3038,3064,3082,3088,3086,3076,3061,3042,3020,2995,2971,2946,2922,2898,2876,2855,2836,2819,2802,2787,2775,2764,2751,2739,2727,2715,2700,2685,2669,2651,2630,2610,2588,2568,2546,2526,2507,2489,2469,2454,2438,2425,2412,2402,2392,2389,2391,2402,2423,2456,2495,2545,2600,2663,2727,2794,2858,2918,2967,3008,3035,3053,3060,3062,3056,3045,3029,3010,2989,2968,2945,2925,2904,2884,2863,2844,2825,2809,2792,2779,2763,2751,2736,2723,2709,2695,2679,2662,2643,2624,2601,2583,2560,2540,4,2,5
2611,2607,2605,2602,2599,2598,2595,2592,2590,2587,2585,2584,2586,2592,2600,2613,2630,2650,2672,2694,2716,2738,2757,2773,2784,2792,2795,2793,2789,2784,2779,2774,2768,2762,2757,2753,2748,2743,2740,2735,2731,2725,2719,2713,2709,2704,2700,2697,2693,2688,2683,2678,2675,2672,2667,2662,2657,2653,2649,2644,2640,2638,2636,2631,2628,2624,2622,2621,2617,2616,2614,2613,2615,2618,2627,2640,2655,2672,2691,2711,2730,2748,2766,2780,2790,2795,2796,2793,2789,2783,2776,2768,2760,2753,2746,2739,2734,2730,2724,2719,2715,2711,2708,2705,2701,2695,2691,2687,2682,2676,2671,2665,2659,2653,2645,2639,2634,2629,2624,2620,2617,2614,2610,2609,2605,2603,2600,2597,2596,2595,2597,2601,2609,2622,2638,2658,2678,2701,2723,2745,2766,2783,2796,2805,2808,2807,2804,2800,2795,2789,2784,2778,2773,2767,2763,2759,2753,2749,2742,2736,2729,2723,2718,2711,2704,2699,2693,2688,2682,2678,2670,2665,2657,2651,2644,2639,2632,2627,2622,2616,2611,2609,2605,2602,2599,2597,2594,2592,2589,2589,2592,2595,2603,2615,2631,2651,2672,2696,2720,2743,2765,2785,2800,2810,2816,2819,2817,2814,2809,2805,2801,2795,2789,2783,2778,2772,2764,2758,2751,2743,2735,2727,2720,2714,2709,2703,2698,2693,2686,2679,2672,2665,2657,2647,2638,2631,2622,2614,2607,2601,2596,2591,2588,2583,2580,2576,2574,2570,2567,2563,2561,2557,2553,2553,2555,2560,2571,2584,2603,2625,2650,2672,2697,2721,2744,2762,2776,2786,2790,2792,2791,2786,2783,2777,2774,2768,2763,2757,2752,2745,2738,2732,2725,2718,2711,2702,2696,2689,2684,2678,2673,2666,2660,2654,2649,2642,2636,2628,2624,2616,2611,2605,2602,2597,2594,2589,2587,2583,2581,2576,2575,2571,2568,2564,2561,2556,2554,2551,2554,2559,2568,2581,2599,2618,2640,2661,2683,2701,2719,2731,2741,2746,2747,2743,2740,2735,2730,2724,2718,2713,2708,2703,2700,2696,2692,2687,2683,2678,2674,2670,2666,2662,2660,2654,2650,2645,2639,2633,2628,2622,2617,2611,2606,2601,2598,2593,2591,2590,2588,2586,2585,2584,2583,2582,2581,2581,2581,2580,2580,2584,2590,2599,2613,2632,2654,2676,2700,2725,2748,2770,2787,2801,2811,2817,2816,2814,2812,2808,2802,2800,2795,2790,2785,2783,2778,2774,2768,2763,2756,2749,2741,2735,2727,2724,2718,2713,2706,2702,2694,2691,2684,2681,2674,2670,2662,2658,2652,2649,2643,2640,2635,2632,2627,2627,2622,2622,2619,2619,2616,2614,2610,2609,2606,2605,2599,2597,2593,2593,2593,2600,2611,2626,2641,2661,2683,2706,2727,2749,2764,2779,2786,2791,2790,2788,2781,2776,2769,2764,2757,2754,2748,2745,2741,2737,2730,2727,2719,2714,2706,2703,2696,2692,2686,2683,2678,2676,2672,2670,2666,2663,2657,2655,2649,2645,2640,2636,2631,2628,2623,2619,2616,2613,2608,2606,2603,2602,2599,2598,2594,2593,2591,2590,2586,2585,2583,2583,2582,2585,2593,2605,2619,2637,2658,2680,2705,2729,2751,2773,2790,2802,2811,2816,2817,2816,2813,2811,2809,2805,2802,2798,2795,2791,2788,2783,2779,2774,2770,2763,2757,2751,2746,2742,2737,2732,2727,2722,2717,2710,2705,2697,2692,2685,2680,2672,2668,2663,2659,2654,2652,2649,2647,2644,2645,2641,2642,2639,2638,2639,2643,2648,2659,2672,2687,2702,2722,2739,2758,2776,2792,2801,2810,2811,2813,2809,2807,2800,2796,2788,2784,2777,2774,2768,2766,2760,2756,2750,2746,2741,2739,2733,2730,2724,2722,2715,2713,2708,2704,2699,2695,2687,2683,2678,2675,2667,2666,2662,2659,2655,2655,2651,2650,2648,2647,2645,2647,2647,2652,2657,2670,2682,2701,2721,2743,2764,2787,2807,2826,2840,2854,2861,2864,2862,2860,2855,2852,2847,2842,2838,2834,2827,2821,2814,2809,2801,2793,2786,2778,2768,2760,2751,2745,2739,2732,2726,2720,2714,2706,2699,2694,2687,2680,2674,2668,2662,2656,2651,2646,2642,2637,2631,2626,2624,2620,2617,2614,2615,2618,2628,2639,2654,2671,2691,2711,2734,2754,2773,2788,2803,2808,2812,2812,2815,2812,2810,2804,2801,2799,2798,2791,2788,2784,2780,2772,2766,2757,2750,2741,2733,2724,2719,2711,2708,2701,2696,2690,2685,2677,2671,2665,2660,2653,2651,2645,2642,2635,2632,2628,2626,2622,2620,2615,2614,2608,2605,2599,2598,2595,2596,2599,2609,2618,2634,2649,2670,2690,2714,2732,2753,2768,2782,2789,2796,2796,2794,2790,2788,2783,2781,2775,2772,2764,2760,2754,2748,2742,2736,2727,2721,2711,2706,2699,2695,2689,2683,2678,2672,2665,2660,2653,2647,2639,2635,2628,2623,2618,2615,2611,2608,2604,2601,2599,2596,2593,2592,2590,2587,2583,2581,2579,2580,2583,2590,2602,2617,2633,2652,2673,2693,2714,2733,2750,2761,2769,2774,2775,2773,2770,2768,2764,2761,2757,2753,2751,2746,2743,2738,2735,2730,2726,2722,2718,2713,2711,2706,2704,2701,2700,2694,2690,2685,2679,2673,2667,2661,2656,2649,2645,2638,2635,2630,2627,2622,2619,2614,2611,2605,2602,2598,2596,2595,2599,2603,2615,2628,2645,2663,2685,2704,2725,2742,2758,2767,2778,2780,2782,2780,2778,2773,2771,2767,2763,2757,2755,2749,2745,2737,2732,2723,2718,2707,2702,2694,2690,2683,2679,2672,2667,2660,2656,2649,2646,2638,2633,2626,2622,2617,2614,2608,2606,2603,2601,2597,2596,2593,2591,2588,2586,2581,2579,2574,2569,2564,2560,2554,2553,2552,2557,2564,2577,2592,2611,2630,2652,2672,2693,2710,2724,2734,2739,2740,2740,2738,2736,2732,2730,2727,2725,2722,2720,2717,2714,2709,2704,2698,2692,2686,2681,2676,2672,2670,2666,2664,2660,2657,2654,2651,2647,2643,2638,2634,2630,2627,2622,2619,2615,2613,2610,2608,2606,2606,2604,2604,2602,2603,2603,2603,2601,2602,2600,2602,2601,2600,2600,2604,2608,2620,2633,2651,2671,2695,2717,2741,2764,2785,2801,2815,2822,2828,2826,2825,2820,2816,2812,2807,2802,2799,2794,2792,2787,2783,2777,2774,2767,2763,2757,2754,2747,2745,2740,2736,2731,2727,2720,2715,2708,2703,2695,2690,2682,2676,2669,2665,2659,2656,2651,2648,2644,2642,2638,2637,2632,2631,2628,2626,2623,2624,2625,2631,2639,2654,2667,2685,2702,2721,2738,2756,2770,2782,2787,2792,2789,2787,2782,2777,2771,2766,2760,2756,2750,2747,2741,2737,2733,2729,2724,2720,2713,2708,2703,2701,2697,2693,2687,2682,2677,2672,2666,2661,2656,2650,2642,2637,2631,2628,2624,2621,2618,2615,2613,2611,2608,2607,2606,2604,2602,2599,2597,2595,2593,2591,2594,2599,2608,2620,2636,2655,2677,2698,2720,2742,2763,2779,2793,2799,2803,2803,2803,2798,2794,2788,2785,2779,2776,2771,2769,2765,2761,2755,2750,2744,2739,2732,2728,2720,2716,2708,2704,2698,2693,2688,2683,2676,2672,2664,2660,2655,2650,2644,2640,2636,2633,2628,2627,2623,2622,2618,2617,2616,2616,2614,2614,2611,2612,2609,2607,2604,2603,2600,2599,2598,2600,2606,2617,2629,2648,2669,2693,2717,2741,2764,2786,2803,2817,2824,2828,2828,2824,2820,2815,2810,2805,2800,2796,2791,2788,2783,2780,2775,2769,2761,2756,2749,2743,2737,2731,2725,2720,2714,2709,2704,2699,2692,2686,2679,2674,2668,2662,2656,2652,2647,2643,2639,2635,2631,2628,2625,2624,2622,2621,2616,2613,2612,2610,2608,2605,2603,2599,2595,2592,2590,2590,2592,2598,2608,2622,2641,2662,2686,2711,2734,2757,2779,2795,2809,2817,2820,2820,2818,2812,2808,2804,2801,2796,2794,2790,2786,2782,2778,2772,2768,2760,2754,2745,2737,2731,2725,2717,2712,2705,2699,2691,2687,2680,2674,2667,2662,2655,2651,2644,2640,2636,2632,2627,2625,2621,2618,2615,2614,2610,2609,2606,2604,2600,2599,2596,2594,2591,2588,2584,2585,2586,2593,2603,2617,2634,2656,2677,2703,2727,2752,2772,2791,2802,2812,2814,2816,2812,2807,2800,2794,2787,2783,2777,2773,2767,2764,2758,2756,2750,2747,2742,2738,2733,2731,2727,2724,2719,2716,2710,2705,2699,2693,2687,2681,2673,2667,2662,2657,2652,2647,2643,2640,2636,2634,2631,2629,2627,2625,2623,2621,2621,2622,2627,2636,2648,2664,2682,2701,2722,2744,2765,2784,2801,2812,2820,2824,2823,2820,2816,2809,2803,2796,2788,2780,2774,2768,2762,2757,2751,2745,2740,2734,2729,2723,2720,2715,2712,2708,2702,2695,2689,2683,2678,2670,2664,2658,2652,2645,2640,2636,2634,2630,2628,2624,2621,2619,2616,2615,2615,2614,2617,2622,2634,2648,2667,2686,2708,2731,2754,2774,2794,2809,2820,2825,2828,2826,2824,2818,2814,2808,2804,2799,2794,2787,2782,2775,2770,2761,2755,2745,2737,2727,2720,2712,2707,2699,2694,2685,2680,2671,2666,2657,2650,2642,2635,2627,2620,2614,2609,2603,2598,2591,2588,2583,2579,2574,2571,2567,2564,2561,2564,2569,2579,2591,2608,2629,2653,2677,2701,2724,2746,2764,2778,2787,2793,2796,2796,2794,2792,2788,2784,2780,2777,2773,2769,2762,2755,2747,2740,2731,2723,2717,2709,2704,2697,2692,2688,2683,2678,2672,2666,2660,2652,2646,2640,2632,2625,2618,2611,2606,2602,2597,2593,2590,2587,2584,2581,2578,2576,2574,2571,2566,2564,2562,2559,2560,2566,2573,2586,2603,2623,2646,2670,2695,2719,2741,2760,2774,2784,2790,2791,2789,2786,2782,2777,2772,2767,2761,2756,2751,2744,2737,2730,2722,2713,2705,2695,2687,2680,2673,2667,2660,2655,2650,2644,2639,2633,2626,2618,2612,2605,2599,2594,2589,2583,2577,2572,2569,2566,2563,2559,2556,2553,2552,2549,2549,2547,2544,2541,2539,2539,2536,2535,2534,2533,2538,2544,2556,2572,2594,2616,2641,2666,2691,2716,2738,2756,2769,2777,2780,2780,2778,2774,2770,2765,2762,2757,2754,2749,2745,2742,2736,2730,2723,2717,2711,2704,2698,2693,2689,2683,2677,2674,2669,2664,2660,2655,2649,2644,2638,2633,2628,2623,2619,2616,2614,2611,2610,2608,2607,2605,2603,2603,2602,2600,2598,2596,2596,2597,2601,2610,2622,2638,2656,2676,2697,2720,2742,2761,2778,2789,2796,2800,2801,2798,2795,2790,2783,2777,2772,2767,2762,2758,2753,2749,2744,2738,2731,2724,2719,2714,2708,2700,2696,2690,2683,2677,2671,2664,2658,2651,2644,2639,2634,2628,2625,2622,2618,2615,2615,2614,2612,2612,2611,2609,2608,2605,2604,2601,2600,2598,2597,2600,2606,2616,2631,2650,2671,2692,2714,2735,2757,2775,2790,2801,2808,2809,2808,2803,2799,2795,2791,2786,2782,2778,2772,2767,2763,2757,2752,2747,2740,2733,2726,2720,2715,2710,2707,2701,2696,2692,2688,2683,2678,2675,2672,2666,2662,2658,2655,2652,2650,2648,2648,2646,2644,2642,2641,2639,2639,2638,2636,2635,2634,2632,2630,2629,2632,2639,2650,2664,2681,2702,2723,2745,2768,2791,2810,2824,2834,2837,2837,2831,2820,2808,2795,2781,2765,2749,2731,2713,2699,2685,2672,2662,2652,2643,2636,2632,2632,2636,2641,2645,2651,2657,2661,2666,2669,2672,2672,2672,2669,2666,2662,2658,2652,2648,2642,2637,2632,2627,2622,2619,2615,2611,2608,2604,2600,2597,2595,2594,2592,2592,2590,2592,2594,2601,2613,2630,2650,2675,2702,2730,2757,2785,2811,2835,2854,2867,2874,2878,2876,2872,2866,2861,2855,2851,2844,2840,2834,2830,2824,2820,2813,2808,2800,2795,2787,2781,2776,2771,2766,2762,2756,2750,2746,2740,2732,2726,2719,2712,2705,2698,2691,2685,2681,2676,2672,2669,2664,2660,2655,2652,2647,2643,2638,2635,2636,2641,2649,2663,2679,2699,2720,2742,2763,2785,2804,2819,2828,2835,2836,2836,2832,2827,2820,2814,2806,2799,2792,2785,2779,2774,2767,2761,2754,2748,2743,2739,2734,2729,2725,2720,2713,2708,2703,2696,2689,2681,2673,2666,2659,2652,2646,2641,2635,2630,2625,2620,2617,2614,2611,2609,2607,2605,2607,2611,2621,2635,2652,2672,2695,2719,2743,2766,2790,2808,2823,2831,2837,2838,2838,2833,2830,2825,2822,2815,2811,2805,2801,2794,2789,2781,2774,2765,2756,2746,2738,2730,2723,2715,2709,2702,2695,2688,2684,2675,2670,2661,2654,2646,2640,2633,2627,2620,2615,2609,2606,2600,2596,2591,2590,2587,2586,2589,2596,2608,2623,2641,2663,2687,2712,2736,2760,2780,2799,2812,2821,2823,2825,2824,2824,2820,2817,2812,2808,2803,2800,2794,2791,2783,2775,2765,2758,2748,2740,2732,2724,2716,2712,2704,2699,2693,2687,2679,2673,2666,2659,2651,2644,2636,2630,2623,2618,2613,2609,2604,2601,2597,2593,2590,2585,2581,2578,2573,2572,2573,2578,2587,2602,2619,2640,2663,2687,2712,2734,2755,2772,2784,2792,2795,2795,2791,2787,2780,2772,2765,2755,2745,2734,2724,2711,2698,2684,2671,2656,2644,2631,2620,2610,2602,2593,2586,2578,2573,2565,2560,2552,2547,2541,2535,2529,2525,2520,2517,2515,2513,2510,2510,2508,2508,2508,2511,2510,2511,2510,2511,2510,2511,2512,2516,2523,2535,2548,2568,2587,2611,2632,2654,2675,2696,2711,2724,2731,2736,2735,2735,2731,2729,2726,2724,2719,2718,2713,2711,2706,2702,2697,2694,2688,2685,2682,2679,2674,2673,2668,2667,2664,2660,2655,2651,2645,2639,2633,2629,2621,2617,2612,2607,2601,2598,2596,2593,2592,2593,2591,2593,2592,2594,2597,2605,2613,2626,2641,2660,2681,2705,2729,2753,2776,2797,2814,2828,2837,2843,2845,2844,2842,2840,2835,2831,2826,2821,2814,2806,2798,2789,2779,2768,2756,2745,2734,2724,2715,2707,2698,2689,2681,2673,2665,2656,2649,2641,2634,2626,2618,2612,2608,2602,2598,2594,2593,2591,2588,2584,2583,2582,2581,2579,2577,2575,2574,2570,2568,2565,2565,2567,2575,2585,2599,2617,2640,2663,2688,2713,2740,2760,2779,2794,2804,2811,2815,2817,2818,2818,2820,2821,2824,2823,2824,2823,2822,2818,2815,2811,2805,2797,2790,2781,2777,2770,2765,2759,2754,2747,2742,2736,2730,2722,2717,2709,2703,2695,2689,2682,2678,2671,2666,2662,2660,2656,2654,2652,2650,2647,2647,2645,2644,2641,2640,2637,2636,2633,2633,2633,2639,2647,2660,2676,2696,2715,2739,2759,2782,2800,2817,2829,2836,2839,2840,2836,2832,2824,2818,2811,2806,2800,2795,2789,2783,2775,2767,2760,2752,2744,2736,2727,2720,2714,2709,2703,2698,2693,2688,2683,2677,2671,2664,2658,2653,2647,2643,2638,2632,2629,2625,2623,2620,2618,2617,2614,2612,2611,2608,2607,2605,2604,2602,2600,2598,2596,2594,2592,2589,2588,2590,2597,2606,2620,2636,2657,2680,2705,2730,2755,2776,2795,2809,2819,2823,2825,2822,2818,2812,2807,2801,2797,2791,2787,2781,2778,2773,2769,2763,2758,2752,2747,2741,2738,2734,2729,2726,2723,2718,2715,2710,2706,2699,2695,2689,2685,2678,2673,2667,2665,2659,2658,2654,2654,2650,2648,2646,2644,2642,2641,2638,2640,2641,2650,2659,2675,2689,2709,2728,2749,2766,2785,2799,2811,2816,2819,2816,2814,2807,2801,2794,2789,2782,2776,2769,2764,2759,2754,2748,2744,2738,2733,2727,2723,2718,2715,2709,2705,2699,2693,2688,2682,2674,2668,2659,2655,2648,2644,2637,2632,2628,2624,2621,2619,2616,2614,2611,2609,2607,2607,2607,2609,2616,2627,2641,2659,2679,2700,2721,2744,2765,2784,2799,2811,2817,2820,2818,2815,2812,2805,2800,2796,2791,2786,2782,2776,2772,2767,2761,2754,2749,2741,2735,2730,2723,2717,2713,2706,2701,2695,2690,2682,2677,2669,2663,2656,2650,2642,2639,2633,2630,2626,2623,2621,2618,2616,2614,2610,2608,2604,2605,2602,2606,2612,2621,2635,2654,2673,2696,2717,2741,2760,2782,2795,2806,2814,2816,2814,2812,2808,2804,2798,2795,2789,2785,2779,2774,2768,2763,2755,2748,2739,2732,2723,2716,2709,2702,2696,2690,2685,2680,2674,2668,2661,2655,2649,2644,2637,2632,2626,2621,2615,2612,2609,2606,2604,2602,2600,2599,2597,2594,2593,2590,2586,2584,2580,2578,2576,2576,2582,2592,2604,2622,2641,2663,2685,2709,2731,2751,2768,2782,2789,2794,2793,2791,2787,2781,2777,2772,2768,2763,2757,2752,2747,2742,2735,2728,2722,2715,2706,2699,2693,2688,2681,2676,2672,2667,2662,2656,2651,2645,2640,2634,2628,2622,2618,2613,2609,2604,2601,2597,2595,2592,2590,2588,2587,2584,2583,2581,2583,2581,2579,2578,2577,2574,2573,2570,2568,2566,2568,2570,2579,2592,2609,2629,2652,2675,2699,2720,2742,2758,2772,2779,2784,2782,2777,2770,2764,2756,2752,2744,2742,2738,2735,2731,2730,2726,2724,2719,2715,2709,2706,2701,2698,2693,2690,2685,2682,2676,2673,2667,2663,2657,2652,2646,2641,2634,2630,2622,2617,2610,2606,2598,2593,2586,2580,2573,2567,2558,2552,2544,2538,2532,2529,2527,2532,2537,2547,2560,2578,2597,2615,2634,2653,2670,2684,2693,2700,2702,2702,2699,2697,2695,2693,2689,2688,2686,2686,2687,2689,2691,2695,2697,2700,2703,2706,2710,2714,2717,2720,2720,2721,2723,2724,2724,2724,2723,2721,2718,2717,2714,2711,2710,2707,2706,2705,2704,2703,2703,2702,2703,2702,2702,2703,2705,2709,2717,2729,2744,2761,2779,2798,2816,2832,2848,2860,2869,2873,2874,2870,2865,2859,2854,2847,2843,2836,2831,2825,2821,2815,2810,2804,2797,2790,2782,2774,2768,2759,2749,2736,2723,2707,2692,2672,2654,2633,2613,2592,2574,2557,2543,2531,2522,2512,2508,2501,2500,2495,2495,2493,2493,2490,2491,2491,2496,10,11,8
2678,2654,2633,2608,2587,2564,2546,2526,2509,2490,2476,2460,2447,2434,2424,2412,2404,2392,2385,2375,2369,2361,2355,2347,2344,2344,2353,2368,2395,2430,2477,2529,2589,2653,2722,2790,2855,2913,2965,3005,3039,3062,3078,3086,3092,3091,3088,3081,3074,3063,3050,3034,3017,2998,2978,2954,2932,2908,2887,2863,2840,2818,2795,2772,2750,2727,2704,2682,2658,2633,2609,2586,2564,2543,2522,2502,2484,2466,2450,2435,2421,2407,2395,2383,2372,2362,2353,2344,2335,2327,2319,2313,2306,2303,2299,2301,2309,2328,2357,2398,2447,2508,2575,2648,2724,2802,2876,2947,3009,3062,3104,3136,3159,3177,3187,3196,3198,3199,3194,3188,3177,3165,3147,3130,3107,3084,3056,3029,2999,2971,2942,2915,2885,2859,2830,2805,2777,2751,2724,2701,2674,2649,2623,2599,2574,2552,2528,2508,2487,2469,2449,2434,2418,2404,2390,2379,2367,2356,2344,2335,2324,2317,2306,2300,2292,2286,2278,2273,2269,2270,2276,2293,2315,2354,2400,2458,2524,2597,2674,2754,2832,2907,2973,3033,3079,3116,3142,3162,3173,3180,3183,3184,3180,3175,3164,3151,3136,3119,3098,3076,3051,3025,2997,2971,2941,2914,2886,2860,2833,2807,2781,2756,2731,2706,2680,2656,2632,2608,2584,2563,2540,2519,2499,2479,2461,2443,2427,2412,2398,2384,2373,2362,2350,2340,2331,2321,2313,2305,2297,2289,2283,2275,2269,2264,2259,2255,2255,2258,2270,2289,2319,2360,2413,2473,2542,2617,2696,2773,2848,2916,2977,3027,3067,3094,3115,3125,3131,3131,3130,3124,3119,3109,3100,3086,3072,3054,3037,3017,2997,2975,2953,2929,2907,2883,2861,2839,2817,2795,2773,2749,2728,2705,2683,2660,2638,2615,2596,2574,2555,2536,2520,2502,2488,2473,2461,2449,2439,2428,2418,2409,2401,2392,2386,2378,2372,2366,2359,2352,2347,2345,2350,2359,2379,2408,2450,2498,2555,2617,2683,2750,2817,2877,2932,2977,3013,3036,3052,3060,3064,3061,3057,3049,3040,3028,3018,3003,2988,2974,2958,2941,2924,2905,2888,2870,2853,2835,2818,2801,2783,2764,2745,2726,2706,2686,2665,2644,2623,2602,2581,2561,2542,2525,2507,2492,2477,2465,2453,2442,2433,2425,2417,2409,2401,2395,2387,2381,2376,2376,2381,2395,2418,2453,2496,2549,2608,2670,2735,2803,2866,2925,2974,3015,3045,3067,3080,3088,3091,3092,3087,3083,3076,3068,3058,3047,3031,3016,2997,2980,2959,2937,2914,2893,2870,2850,2827,2807,2785,2765,2742,2722,2701,2682,2659,2640,2618,2599,2578,2560,2541,2525,2507,2492,2475,2463,2448,2437,2426,2416,2405,2396,2387,2379,2370,2364,2354,2348,2340,2337,2337,2346,2363,2392,2431,2478,2532,2594,2659,2728,2794,2858,2914,2963,3000,3029,3048,3061,3068,3073,3073,3071,3066,3063,3054,3046,3033,3019,3003,2985,2964,2943,2921,2901,2877,2854,2832,2810,2789,2770,2750,2730,2710,2691,2669,2651,2631,2613,2596,2578,2560,2543,2527,2511,2497,2483,2469,2456,2444,2434,2424,2415,2405,2398,2390,2382,2375,2367,2360,2353,2348,2344,2346,2355,2372,2402,2441,2488,2542,2600,2661,2723,2785,2841,2890,2930,2959,2979,2991,2996,2998,2996,2992,2985,2979,2969,2961,2950,2938,2924,2910,2891,2874,2855,2837,2818,2800,2779,2760,2742,2726,2708,2692,2675,2659,2641,2625,2609,2593,2577,2562,2546,2532,2518,2505,2490,2481,2469,2461,2450,2442,2434,2428,2418,2412,2405,2400,2392,2387,2381,2376,2370,2364,2359,2356,2351,2350,2347,2352,2363,2383,2413,2455,2504,2559,2617,2680,2741,2801,2857,2905,2940,2968,2982,2990,2989,2985,2976,2967,2957,2946,2933,2920,2907,2895,2880,2867,2852,2839,2823,2809,2794,2781,2769,2756,2743,2731,2717,2704,2690,2677,2663,2649,2635,2622,2609,2596,2584,2572,2561,2551,2541,2533,2523,2515,2508,2502,2497,2491,2486,2480,2475,2471,2467,2466,2469,2478,2497,2523,2557,2598,2644,2692,2741,2789,2835,2876,2910,2934,2949,2956,2957,2951,2943,2934,2923,2911,2899,2887,2874,2861,2847,2835,2821,2809,2795,2782,2770,2759,2748,2737,2725,2714,2702,2690,2678,2665,2652,2638,2624,2610,2597,2583,2572,2560,2549,2540,2530,2521,2514,2507,2501,2495,2491,2485,2479,2475,2469,2465,2463,2465,2473,2492,2520,2555,2599,2648,2699,2753,2806,2857,2905,2944,2972,2990,3001,3003,3001,2996,2989,2981,2971,2962,2952,2943,2933,2922,2909,2895,2879,2863,2848,2832,2816,2801,2786,2771,2757,2744,2730,2717,2705,2691,2678,2663,2649,2635,2620,2606,2592,2580,2568,2557,2546,2536,2528,2518,2509,2503,2495,2489,2482,2476,2470,2468,2469,2477,2496,2524,2560,2601,2645,2695,2744,2793,2842,2885,2920,2945,2961,2969,2972,2971,2965,2958,2951,2942,2934,2927,2916,2905,2893,2880,2866,2851,2835,2818,2802,2787,2770,2756,2742,2728,2714,2702,2689,2677,2665,2652,2638,2625,2612,2600,2587,2575,2564,2553,2543,2533,2524,2515,2506,2498,2491,2484,2479,2472,2465,2459,2454,2448,2444,2438,2433,2429,2427,2430,2444,2466,2500,2541,2587,2640,2695,2753,2809,2862,2909,2946,2974,2989,2997,2998,2995,2989,2982,2974,2966,2957,2948,2938,2928,2917,2905,2892,2878,2863,2846,2829,2814,2797,2782,2766,2751,2737,2722,2708,2692,2677,2663,2649,2636,2621,2608,2595,2582,2570,2558,2546,2536,2525,2517,2506,2499,2492,2484,2476,2470,2464,2457,2451,2445,2439,2434,2427,2421,2416,2411,2404,2400,2399,2403,2418,2443,2477,2523,2573,2628,2688,2749,2809,2864,2913,2954,2983,3001,3009,3011,3009,3002,2993,2984,2975,2965,2954,2943,2932,2919,2906,2893,2877,2862,2847,2832,2817,2802,2789,2774,2761,2748,2734,2721,2707,2694,2680,2667,2654,2639,2627,2614,2602,2590,2579,2569,2560,2552,2543,2535,2528,2520,2513,2506,2499,2492,2489,2488,2493,2506,2527,2557,2594,2634,2680,2727,2775,2819,2863,2899,2927,2946,2958,2963,2962,2958,2954,2947,2940,2930,2922,2911,2900,2889,2876,2865,2851,2837,2823,2808,2794,2780,2768,2755,2743,2729,2715,2702,2687,2671,2656,2640,2625,2609,2595,2578,2565,2552,2540,2528,2517,2506,2498,2489,2482,2474,2468,2462,2462,2466,2480,2500,2530,2565,2608,2655,2706,2758,2809,2857,2901,2935,2962,2982,2996,3002,3005,3005,3003,3000,2998,2993,2987,2980,2970,2957,2944,2930,2914,2897,2880,2861,2843,2824,2806,2789,2771,2753,2735,2718,2701,2683,2663,2646,2628,2610,2593,2577,2560,2545,2531,2517,2504,2492,2479,2469,2458,2450,2441,2432,2424,2417,2416,2422,2437,2463,2495,2534,2578,2628,2680,2735,2789,2840,2884,2920,2947,2968,2983,2993,2998,3005,3010,3010,3009,3007,3002,2998,2988,2977,2965,2951,2933,2915,2895,2876,2856,2837,2817,2800,2780,2762,2742,2723,2705,2688,2669,2652,2632,2614,2595,2578,2559,2543,2524,2510,2494,2479,2464,2451,2438,2427,2415,2407,2397,2390,2379,2371,2361,2354,2346,2339,2331,2323,2314,2307,2301,2299,2300,2310,2329,2359,2398,2448,2502,2566,2631,2699,2766,2830,2886,2935,2972,3002,3023,3038,3047,3053,3057,3059,3059,3058,3054,3049,3039,3029,3015,3001,2984,2965,2944,2922,2899,2878,2855,2833,2810,2788,2766,2745,2723,2703,2682,2661,2640,2619,2599,2579,2561,2543,2525,2508,2491,2476,2461,2447,2435,2424,2413,2402,2393,2382,2373,2364,2354,2347,2338,2329,2322,2317,2316,2322,2335,2357,2392,2434,2483,2538,2598,2660,2721,2778,2831,2878,2914,2941,2961,2973,2981,2985,2986,2987,2986,2981,2975,2966,2957,2945,2933,2917,2902,2882,2864,2845,2827,2808,2789,2770,2752,2734,2716,2695,2679,2660,2641,2623,2606,2586,2569,2551,2534,2519,2506,2490,2477,2464,2454,2442,2434,2424,2416,2407,2400,2392,2386,2378,2373,2365,2359,2351,2349,2348,2356,2371,2400,2436,2482,2532,2590,2649,2714,2776,2836,2887,2931,2964,2990,3005,3016,3021,3024,3024,3021,3016,3012,3003,2994,2983,2971,2955,2940,2921,2903,2884,2865,2846,2827,2808,2790,2771,2753,2732,2713,2693,2673,2654,2634,2613,2595,2575,2557,2540,2523,2507,2492,2478,2465,2452,2442,2432,2422,2414,2406,2398,2390,2382,2374,2366,2359,2350,2344,2340,2339,2347,2365,2393,2432,2481,2539,2601,2667,2737,2806,2871,2928,2977,3015,3044,3064,3077,3085,3091,3093,3094,3094,3092,3087,3081,3072,3060,3045,3029,3009,2989,2967,2943,2919,2897,2872,2851,2827,2805,2782,2760,2735,2710,2687,2666,2643,2622,2598,2580,2558,2540,2522,2506,2491,2477,2462,2447,2433,2423,2411,2402,2391,2383,2371,2364,2355,2349,2341,2335,2327,2322,2317,2319,2325,2345,2372,2412,2458,2516,2579,2647,2717,2788,2856,2919,2971,3014,3046,3071,3086,3097,3104,3108,3109,3107,3104,3101,3094,3084,3072,3059,3042,3024,3002,2981,2957,2933,2907,2884,2860,2838,2813,2790,2766,2743,2720,2698,2674,2651,2628,2605,2583,2563,2541,2520,2501,2483,2465,2451,2435,2421,2408,2395,2383,2372,2362,2351,2341,2329,2320,2312,2304,2297,2289,2283,2278,2275,2278,2289,2311,2344,2387,2440,2501,2568,2640,2712,2786,2854,2915,2966,3007,3036,3057,3070,3077,3079,3079,3076,3072,3065,3057,3045,3034,3020,3003,2985,2967,2945,2924,2900,2878,2854,2833,2809,2786,2764,2743,2719,2698,2675,2653,2630,2611,2587,2568,2546,2528,2508,2491,2472,2459,2443,2430,2415,2404,2391,2382,2372,2364,2353,2346,2336,2330,2322,2316,2308,2304,2297,2296,2296,2307,2324,2354,2392,2444,2499,2565,2632,2704,2772,2840,2897,2949,2987,3017,3035,3047,3051,3052,3048,3045,3037,3030,3018,3008,2994,2981,2965,2951,2934,2918,2897,2880,2861,2846,2827,2810,2792,2775,2754,2736,2715,2696,2675,2656,2634,2615,2594,2574,2555,2538,2520,2505,2491,2478,2465,2454,2443,2434,2425,2417,2409,2400,2394,2389,2389,2396,2412,2438,2473,2518,2571,2629,2691,2755,2818,2876,2927,2969,3002,3026,3042,3050,3052,3052,3049,3043,3035,3025,3014,3000,2986,2968,2951,2933,2912,2891,2872,2853,2835,2815,2798,2779,2761,2742,2724,2705,2688,2665,2646,2625,2606,2586,2567,2548,2530,2511,2495,2477,2465,2449,2436,2423,2413,2400,2390,2380,2374,2365,2358,2349,2345,2345,2353,2368,2396,2432,2480,2532,2594,2658,2727,2795,2860,2917,2970,3010,3042,3063,3080,3088,3096,3098,3099,3096,3095,3088,3082,3071,3060,3042,3028,3005,2985,2961,2937,2911,2889,2866,2846,2824,2806,2785,2769,2749,2733,2715,2696,2676,2657,2635,2616,2595,2575,2556,2540,2521,2505,2488,2475,2460,2449,2437,2428,2417,2408,2396,2387,2380,2377,2380,2391,2412,2443,2483,2534,2589,2652,2717,2784,2849,2909,2961,3004,3038,3062,3077,3086,3091,3093,3092,3089,3084,3077,3067,3055,3040,3023,3005,2985,2962,2937,2911,2885,2859,2834,2810,2785,2763,2739,2716,2693,2672,2650,2630,2606,2584,2563,2543,2521,2502,2482,2465,2448,2431,2414,2402,2387,2375,2362,2353,2342,2334,2323,2316,2308,2301,2293,2287,2280,2274,2266,2262,2257,2257,2259,2273,2296,2332,2376,2433,2498,2571,2646,2725,2800,2875,2937,2994,3036,3070,3091,3107,3112,3116,3113,3111,3103,3095,3084,3073,3057,3042,3023,3002,2980,2958,2934,2912,2885,2862,2837,2815,2789,2766,2741,2717,2691,2668,2642,2620,2596,2572,2548,2529,2507,2490,2471,2455,2438,2425,2409,2397,2385,2374,2363,2355,2345,2338,2328,2322,2313,2307,2301,2296,2290,2285,2280,2278,2280,2290,2308,2337,2378,2427,2485,2551,2620,2693,2765,2835,2897,2951,2993,3025,3047,3061,3066,3068,3065,3059,3052,3043,3033,3021,3008,2993,2978,2962,2945,2927,2909,2891,2873,2854,2836,2817,2799,2780,2760,2740,2719,2696,2673,2651,2627,2604,2583,2561,2542,2522,2504,2487,2474,2459,2447,2435,2427,2416,2409,2400,2392,2384,2378,2371,2364,2357,2353,2348,2350,2356,2374,2398,2436,2481,2536,2598,2664,2731,2800,2863,2924,2972,3015,3044,3066,3076,3080,3079,3076,3068,3060,3050,3041,3026,3010,2992,2977,2960,2943,2922,2906,2886,2868,2845,2827,2809,2791,2769,2749,2727,2707,2682,2661,2636,2616,2593,2573,2550,2533,2512,2495,2478,2463,2448,2439,2426,2416,2404,2397,2387,2380,2370,2364,2357,2352,2344,2340,2335,2335,2342,2357,2382,2419,2466,2523,2586,2656,2727,2803,2875,2942,3001,3049,3086,3114,3130,3140,3144,3145,3139,3134,3126,3116,3105,3092,3077,3062,3045,3026,3005,2984,2962,2939,2917,2894,2871,2848,2825,2802,2778,2754,2731,2707,2683,2658,2633,2609,2587,2564,2543,2523,2505,2485,2468,2451,2439,2426,2415,2402,2391,2380,2372,2363,2356,2350,2345,2336,2330,2324,2324,2326,2338,2356,2387,2424,2475,2532,2598,2666,2739,2809,2878,2939,2995,3038,3073,3096,3112,3119,3123,3122,3121,3112,3105,3092,3081,3065,3050,3031,3013,2992,2971,2948,2927,2902,2880,2854,2833,2809,2787,2763,2741,2716,2694,2670,2648,2623,2601,2574,2553,2530,2511,2491,2475,2455,2439,2423,2410,2395,2385,2373,2363,2354,2345,2336,2328,2320,2314,2306,2301,2295,2291,2288,2295,2309,2333,2367,2413,2465,2527,2595,2667,2742,2817,2883,2943,2992,3034,3065,3088,3102,3111,3114,3114,3109,3104,3095,3086,3072,3057,3041,3023,3003,2983,2960,2938,2914,2892,2871,2849,2826,2802,2779,2756,2732,2709,2685,2663,2638,2614,2591,2568,2548,2526,2505,2486,2468,2452,2436,2421,2409,2397,2387,2375,2367,2359,2350,2343,2336,2328,2321,2315,2311,2309,2315,2325,2347,2377,2420,2466,2523,2584,2651,2719,2786,2847,2903,2947,2984,3009,3030,3040,3046,3045,3044,3037,3030,3021,3012,2997,2986,2969,2952,2934,2917,2897,2879,2859,2841,2822,2805,2785,2766,2747,2728,2705,2685,2660,2639,2616,2596,2572,2554,2533,2515,2497,2483,2468,2457,2443,2431,2420,2415,2404,2398,2390,2384,2376,2371,2368,2371,2379,2397,2420,2454,2498,2550,2606,2670,2732,2797,2857,2912,2957,2996,3024,3043,3054,3059,3059,3058,3052,3047,3036,3026,3012,2998,2982,2968,2951,2933,2915,2898,2877,2860,2842,2825,2808,2789,2768,2748,2728,2705,2681,2660,2637,2615,2592,2572,2552,2532,2514,2497,2481,2466,2452,2439,2427,2414,2404,2398,2396,2401,2416,2438,2469,2510,2558,2612,2673,2735,2797,2857,2912,2959,2999,3029,3052,3067,3077,3081,3081,3078,3074,3064,3056,3043,3031,3014,2997,2976,2957,2935,2915,2891,2871,2848,2827,2804,2782,2759,2739,2715,2694,2668,2647,2623,2600,2575,2555,2532,2512,2490,2474,2454,2440,2422,2410,2396,2386,2373,2363,2353,2346,2337,2336,2337,2347,2365,2394,2432,2480,2535,2598,2664,2734,2800,2866,2923,2974,3015,3048,3071,3088,3097,3106,3106,3105,3101,3096,3086,3076,3062,3047,3027,3006,2980,2956,2931,2905,2878,2852,2824,2798,2771,2746,2720,2695,2669,2644,2618,2595,2568,2546,2522,2499,2477,2458,2437,2420,2402,2386,2369,2355,2342,2332,2321,2311,2301,2295,2286,2278,2272,2267,2261,2255,2250,2247,2247,2253,2268,2292,2327,2370,2423,2486,2554,2626,2699,2773,2842,2903,2956,3000,3034,3059,3076,3086,3092,3094,3093,3088,3083,3073,3061,3045,3029,3010,2990,2967,2944,2920,2896,2870,2847,2822,2800,2775,2752,2727,2705,2680,2657,2633,2610,2585,2564,2540,2519,2499,2480,2461,2446,2429,2415,2401,2390,2377,2367,2357,2347,2338,2331,2322,2317,2308,2302,2293,2289,2285,2286,2291,2306,2327,2361,2401,2454,2511,2577,2642,2712,2777,2842,2896,2944,2981,3011,3029,3045,3050,3054,3053,3052,3043,3036,3023,3012,2995,2982,2963,2946,2926,2907,2887,2870,2850,2833,2814,2797,2775,2757,2737,2717,2697,2677,2654,2634,2612,2592,2573,2557,2537,2520,2503,2489,2474,2462,2449,2438,2427,2417,2408,2408,2412,2425,2445,2476,2515,2561,2612,2670,2730,2791,2848,2900,2946,2984,3012,3033,3048,3058,3061,3060,3056,3051,3042,3030,3016,3001,2985,2966,2946,2924,2903,2883,2861,2839,2821,2799,2778,2757,2737,2715,2695,2673,2650,2626,2604,2579,2558,2535,2515,2494,2474,2455,2438,2422,2409,2395,2385,2372,2364,2354,2351,2353,2364,2384,2414,2453,2502,2555,2617,2682,2751,2816,2879,2933,2981,3019,3050,3070,3086,3095,3102,3102,3102,3096,3092,3080,3069,3054,3037,3016,2996,2971,2948,2920,2896,2868,2844,2818,2793,2767,2744,2717,2693,2668,2645,2620,2598,2573,2550,2527,2505,2483,2466,2445,2427,2409,2395,2377,2364,2349,2338,2326,2317,2306,2300,2294,2297,2304,2324,2353,2394,2440,2497,2559,2627,2696,2765,2829,2891,2942,2985,3019,3045,3064,3077,3085,3092,3093,3094,3087,3080,3069,3056,3040,3022,3000,2977,2952,2926,2899,2873,2847,2821,2795,2768,2743,2718,2692,2667,2643,2618,2595,2571,2548,2525,2503,2481,2461,2441,2422,2404,2386,2371,2356,2343,2330,2319,2308,2296,2287,2278,2271,2263,2256,2249,2249,2251,2262,2282,2314,2355,2406,2465,2532,2602,2677,2749,2821,2885,2943,2989,3026,3053,3075,3089,3100,3105,3108,3106,3103,3094,3085,3070,3056,3036,3016,2991,2969,2941,2916,2888,2865,2838,2815,2790,2767,2741,2719,2694,2673,2649,2628,2602,2581,2557,2536,10,4,3
2645,2635,2627,2615,2606,2594,2582,2570,2557,2547,2534,2524,2512,2505,2495,2491,2490,2495,2506,2522,2545,2570,2600,2629,2662,2691,2721,2746,2767,2781,2790,2794,2792,2788,2779,2772,2761,2750,2739,2731,2723,2715,2709,2704,2701,2696,2695,2690,2689,2686,2686,2684,2682,2681,2677,2674,2667,2664,2654,2647,2636,2629,2618,2609,2599,2588,2579,2568,2560,2551,2546,2541,2543,2549,2561,2577,2598,2623,2649,2679,2705,2735,2759,2784,2801,2815,2823,2825,2825,2820,2817,2805,2794,2779,2769,2755,2744,2733,2723,2716,2708,2702,2697,2697,2697,2701,2702,2706,2707,2708,2709,2706,2700,2693,2685,2673,2662,2649,2637,2625,2614,2603,2593,2587,2585,2589,2595,2609,2627,2654,2681,2711,2742,2775,2808,2837,2867,2888,2907,2917,2924,2924,2922,2915,2907,2897,2884,2870,2854,2839,2823,2809,2794,2783,2772,2763,2755,2748,2743,2736,2734,2729,2726,2720,2716,2708,2700,2690,2679,2668,2653,2642,2630,2618,2604,2594,2583,2576,2573,2574,2582,2594,2611,2633,2660,2686,2717,2746,2775,2801,2823,2840,2851,2859,2860,2858,2852,2846,2836,2826,2815,2803,2791,2779,2768,2755,2746,2735,2726,2717,2710,2703,2698,2693,2689,2684,2677,2672,2664,2656,2644,2634,2621,2610,2598,2584,2572,2560,2551,2540,2533,2527,2529,2533,2544,2558,2577,2601,2627,2657,2687,2719,2746,2775,2797,2816,2827,2836,2839,2838,2836,2832,2827,2820,2816,2808,2800,2791,2783,2774,2765,2756,2744,2735,2725,2717,2706,2698,2689,2682,2674,2664,2655,2644,2635,2622,2612,2599,2587,2576,2565,2554,2545,2536,2527,2524,2519,2521,2526,2539,2553,2575,2599,2628,2658,2689,2722,2752,2783,2806,2825,2838,2848,2851,2851,2847,2840,2833,2823,2814,2801,2792,2780,2770,2757,2747,2736,2724,2714,2704,2695,2684,2678,2669,2663,2653,2646,2637,2628,2619,2609,2601,2590,2582,2570,2561,2551,2544,2536,2529,2524,2519,2519,2519,2527,2536,2554,2573,2598,2625,2657,2690,2721,2753,2781,2808,2828,2845,2854,2861,2861,2859,2853,2845,2838,2828,2819,2808,2798,2786,2776,2765,2755,2744,2734,2725,2714,2706,2697,2689,2680,2672,2663,2655,2645,2635,2626,2615,2605,2593,2583,2573,2565,2557,2550,2542,2536,2529,2521,2514,2507,2504,2500,2503,2509,2522,2538,2560,2587,2617,2651,2686,2721,2754,2787,2812,2835,2850,2860,2864,2865,2862,2854,2848,2839,2830,2819,2810,2797,2787,2776,2767,2758,2750,2744,2735,2732,2723,2720,2713,2708,2700,2693,2684,2673,2659,2643,2627,2607,2591,2570,2552,2535,2521,2507,2495,2487,2479,2474,2469,2467,2464,2466,2470,2478,2488,2506,2527,2551,2581,2611,2644,2675,2708,2737,2765,2786,2803,2814,2819,2821,2816,2811,2801,2793,2782,2772,2760,2750,2740,2730,2721,2713,2707,2700,2696,2689,2687,2682,2679,2675,2669,2664,2656,2650,2640,2632,2621,2611,2600,2591,2580,2570,2561,2550,2541,2530,2522,2510,2504,2499,2500,2504,2516,2534,2556,2585,2614,2648,2681,2716,2747,2777,2800,2818,2831,2838,2839,2834,2829,2819,2809,2795,2784,2769,2758,2746,2734,2724,2714,2706,2696,2691,2684,2681,2676,2673,2669,2665,2662,2657,2653,2645,2641,2631,2622,2613,2604,2592,2582,2572,2559,2549,2538,2530,2518,2511,2506,2504,2508,2519,2535,2556,2584,2614,2648,2681,2718,2752,2785,2811,2834,2852,2863,2869,2869,2865,2858,2850,2841,2830,2817,2807,2794,2782,2771,2759,2749,2739,2732,2724,2716,2709,2703,2695,2688,2682,2673,2665,2656,2647,2635,2624,2612,2602,2592,2581,2571,2561,2552,2544,2536,2526,2518,2509,2503,2500,2502,2508,2521,2539,2562,2590,2621,2658,2695,2734,2771,2807,2837,2862,2881,2893,2901,2902,2901,2894,2886,2875,2865,2851,2839,2827,2814,2802,2791,2781,2771,2766,2760,2754,2748,2744,2738,2731,2725,2716,2709,2697,2687,2673,2661,2647,2634,2621,2610,2601,2591,2584,2575,2569,2561,2556,2550,2546,2545,2547,2555,2566,2585,2606,2634,2662,2695,2728,2761,2793,2822,2846,2863,2876,2881,2883,2879,2873,2864,2852,2839,2824,2809,2793,2778,2762,2747,2730,2718,2704,2695,2685,2677,2672,2666,2662,2658,2656,2653,2649,2644,2640,2631,2624,2617,2609,2601,2592,2585,2576,2570,2564,2557,2549,2543,2537,2534,2533,2537,2547,2560,2579,2599,2624,2650,2677,2705,2732,2757,2777,2794,2804,2810,2811,2811,2807,2802,2794,2786,2776,2765,2756,2745,2736,2725,2716,2708,2701,2692,2687,2684,2679,2675,2671,2669,2665,2661,2654,2648,2638,2629,2619,2610,2601,2590,2582,2572,2562,2552,2544,2535,2529,2525,2523,2524,2529,2542,2558,2579,2603,2630,2659,2690,2719,2747,2773,2795,2813,2823,2829,2830,2830,2825,2820,2811,2803,2794,2783,2773,2762,2752,2742,2735,2727,2721,2715,2710,2706,2702,2699,2696,2693,2689,2684,2676,2670,2661,2653,2642,2632,2622,2613,2604,2594,2586,2578,2573,2565,2560,2556,2558,2562,2570,2585,2603,2627,2653,2684,2714,2746,2778,2809,2835,2857,2875,2887,2892,2893,2892,2886,2877,2867,2857,2843,2829,2817,2804,2791,2779,2768,2757,2749,2742,2735,2730,2727,2723,2719,2714,2708,2704,2697,2690,2683,2674,2663,2653,2643,2633,2623,2612,2603,2593,2584,2575,2566,2561,2562,2566,2576,2592,2613,2638,2667,2698,2729,2763,2795,2824,2849,2870,2883,2891,2895,2895,2891,2885,2877,2867,2856,2844,2832,2821,2810,2797,2786,2774,2764,2753,2744,2736,2729,2722,2716,2709,2702,2697,2688,2680,2671,2663,2651,2639,2627,2616,2603,2590,2578,2566,2556,2547,2538,2530,2524,2523,2524,2531,2545,2561,2582,2606,2633,2663,2693,2724,2754,2782,2806,2825,2838,2848,2856,2859,2860,2859,2856,2850,2842,2832,2822,2810,2797,2783,2768,2752,2735,2718,2702,2688,2676,2666,2659,2653,2648,2644,2642,2641,2638,2636,2633,2629,2624,2617,2608,2599,2589,2579,2569,2558,2549,2539,2531,2524,2523,2526,2535,2550,2570,2594,2621,2652,2684,2717,2751,2783,2812,2837,2853,2865,2870,2871,2867,2857,2844,2829,2812,2794,2774,2754,2737,2721,2706,2693,2683,2676,2672,2669,2670,2671,2673,2677,2677,2676,2674,2671,2665,2658,2650,2639,2627,2615,2603,2591,2580,2572,2563,2554,2546,2538,2531,2524,2518,2513,2511,2513,2520,2532,2549,2572,2597,2627,2659,2691,2725,2756,2784,2808,2827,2839,2845,2845,2844,2838,2830,2821,2811,2801,2790,2782,2773,2766,2757,2752,2746,2740,2733,2727,2723,2719,2715,2708,2701,2693,2685,2675,2665,2654,2643,2631,2618,2604,2590,2579,2567,2556,2545,2536,2525,2518,2515,2516,2521,2531,2548,2568,2592,2618,2649,2680,2711,2741,2767,2790,2807,2819,2825,2826,2824,2819,2809,2798,2785,2770,2755,2740,2726,2711,2700,2690,2682,2673,2666,2661,2656,2654,2653,2652,2649,2649,2645,2641,2634,2628,2620,2612,2602,2592,2583,2573,2565,2555,2548,2540,2535,2534,2538,2546,2562,2586,2610,2639,2670,2705,2739,2774,2807,2837,2861,2879,2892,2897,2899,2897,2891,2884,2876,2863,2852,2840,2828,2817,2807,2798,2788,2779,2772,2764,2757,2752,2747,2743,2739,2736,2732,2725,2720,2711,2704,2695,2688,2679,2670,2661,2651,2642,2632,2622,2613,2605,2598,2594,2594,2599,2608,2622,2643,2667,2696,2725,2757,2787,2818,2844,2867,2884,2897,2905,2907,2907,2900,2894,2885,2876,2864,2852,2839,2827,2814,2803,2793,2783,2777,2768,2763,2756,2753,2748,2745,2740,2732,2726,2717,2707,2695,2684,2672,2659,2646,2634,2621,2610,2601,2590,2581,2571,2566,2561,2565,2573,2585,2602,2623,2648,2675,2705,2735,2766,2792,2818,2836,2850,2859,2863,2862,2859,2855,2847,2840,2830,2821,2810,2800,2788,2777,2765,2754,2744,2733,2724,2714,2707,2698,2693,2688,2684,2679,2674,2669,2661,2655,2647,2638,2627,2618,2607,2597,2586,2574,2564,2554,2545,2535,2531,2527,2531,2536,2548,2566,2588,2615,2644,2676,2709,2742,2772,2802,2824,2844,2857,2864,2867,2866,2865,2857,2849,2839,2829,2817,2804,2790,2776,2763,2751,2738,2724,2715,2703,2694,2685,2679,2674,2670,2666,2661,2656,2650,2644,2635,2628,2617,2609,2598,2590,2578,2568,2558,2547,2537,2527,2519,2509,2503,2498,2498,2501,2513,2529,2550,2578,2608,2642,2675,2712,2745,2778,2807,2831,2847,2858,2864,2866,2863,2857,2852,2841,2832,2819,2807,2794,2782,2770,2757,2746,2734,2724,2714,2707,2698,2693,2687,2681,2677,2671,2665,2657,2651,2641,2632,2620,2610,2598,2587,2575,2564,2555,2544,2536,2527,2521,2513,2509,2504,2506,2517,2529,2548,2568,2596,2656,2689,2717,2747,2772,2795,2812,2823,2829,2830,2831,2826,2822,2813,2806,2798,2780,2768,2760,2751,2743,2733,2725,2715,2710,2703,2699,2695,2693,2688,2680,2676,2670,2661,2653,2642,2634,2613,2597,2588,2577,2566,2555,2543,2535,2522,2514,2504,2497,2492,2495,2501,2515,2536,2561,2592,2624,2660,2694,2730,2762,2792,2814,2833,2845,2850,2851,2849,2844,2835,2828,2818,2809,2796,2786,2775,2763,2753,2744,2736,2727,2720,2712,2708,2702,2698,2694,2689,2683,2676,2670,2661,2653,2632,2620,2610,2599,2592,2583,2574,2565,2555,2548,2538,2530,2534,2540,2570,2602,2623,2673,2732,2759,2788,2815,2834,2852,2862,2868,2869,2867,2861,2851,2841,2828,2815,2798,2783,2764,2733,2715,2703,2692,2683,2676,2673,2670,2669,2668,2667,2662,2660,2656,2651,2645,2639,2633,2623,2616,2605,2596,2586,2579,2567,2558,2546,2540,2546,2557,2573,2595,2619,2650,2678,2710,2740,2769,2794,2814,2830,2839,2844,2843,2840,2831,2824,2812,2801,2789,2776,2762,2746,2734,2721,2710,2698,2690,2681,2675,2669,2664,2660,2656,2652,2646,2640,2633,2627,2616,2608,2596,2585,2576,2564,2554,2542,2534,2524,2516,2508,2507,2507,2517,2532,2549,2573,2599,2630,2659,2693,2723,2754,2776,2798,2814,2825,2831,2831,2830,2825,2821,2813,2806,2797,2789,2778,2767,2756,2744,2734,2724,2714,2703,2696,2689,2684,2678,2675,2670,2666,2662,2654,2647,2638,2631,2618,2609,2597,2589,2579,2568,2559,2550,2545,2538,2533,2530,2534,2539,2549,2564,2586,2615,2645,2679,2711,2746,2778,2809,2832,2866,2886,2886,2886,2883,2876,2870,2861,2852,2842,2831,2818,2807,2794,2782,2770,2758,2748,2737,2728,2718,2712,2704,2699,2691,2677,2663,2654,2644,2634,2625,2613,2602,2592,2582,2572,2564,2557,2549,2543,2538,2539,2543,2554,2568,2589,2614,2637,2690,2744,2771,2803,2827,2849,2862,2874,2877,2879,2872,2859,2850,2839,2827,2816,2802,2791,2778,2768,2748,2732,2724,2715,2706,2698,2690,2683,2675,2667,2658,2650,2637,2625,2612,2599,2587,2573,2561,2547,2537,2525,2515,2505,2500,2494,2491,2490,2497,2519,2537,2559,2589,2619,2654,2688,2722,2757,2790,2819,2843,2863,2875,2885,2886,2888,2879,2868,2861,2852,2832,2810,2801,2787,2777,2763,2752,2742,2723,2713,2706,2700,2691,2679,2672,2655,2647,2635,2627,2616,2605,2594,2577,2555,2540,2532,2524,2522,2519,2526,2535,2554,2575,2602,2633,2665,2700,2734,2771,2803,2831,2853,2872,2882,2888,2890,2887,2884,2872,2853,2844,2831,2821,2808,2798,2778,2760,2753,2740,2725,2717,2711,2703,2698,2691,2676,2665,2657,2638,2618,2608,2594,2583,2569,2559,2545,2523,2514,2512,2512,2526,2565,2612,2638,2673,2704,2735,2760,2785,2801,2815,2821,2816,2810,2801,2790,2778,2751,2738,2717,2704,2696,2690,2685,2679,2676,2672,2671,2672,2668,2662,2657,2645,2637,2618,2591,2579,2567,2552,2540,2518,2509,2508,2510,2515,2545,2576,2613,2672,2700,2733,2789,2812,2824,2836,2839,2838,2834,2826,2816,2804,2792,2763,2750,2738,2724,2714,2704,2695,2687,2679,2672,2662,2655,2647,2643,2634,2630,2615,2596,2575,2555,2544,2535,2523,2515,2505,2503,2503,2510,2521,2537,2562,2585,2624,2695,2757,2804,2821,2833,2839,2842,2840,2836,2828,2818,2809,2798,2789,2777,2768,2756,2747,2734,2723,2713,2705,2699,2692,2687,2680,2675,2667,2662,2653,2645,2630,2609,2597,2585,2573,2563,2551,2541,2530,2521,2514,2505,2504,2511,2521,2539,2559,2586,2615,2677,2752,2795,2819,2842,2857,2866,2870,2866,2862,2852,2842,2827,2814,2799,2783,2770,2751,2727,2710,2703,2695,2684,2680,2675,2671,2662,2647,2638,2629,2618,2609,2597,2588,2578,2569,2558,2550,2542,2534,2527,2515,2503,2503,2503,2512,2524,2543,2566,2595,2629,2665,2703,2740,2776,2805,2832,2851,2865,2873,2870,2864,2851,2826,2806,2791,2767,2758,2746,2726,2714,2705,2697,2687,2677,2667,2654,2648,2638,2629,2617,2608,2595,2584,2565,2546,2539,2529,2521,2514,2499,2491,2490,2487,2500,2520,2539,2564,2593,2624,2659,2694,2731,2796,2826,2844,2859,2869,2874,2870,2865,2858,2847,2838,2828,2819,2809,2800,2789,2780,2769,2750,2736,2724,2716,2711,2702,2696,2682,2658,2642,2623,2601,2591,2577,2567,2556,2548,2538,2529,2522,2516,2512,2513,2520,2541,2585,2611,2643,2677,2708,2764,2822,2846,2854,2860,2858,2853,2836,2822,2811,2797,2785,2773,2753,2736,2730,2721,2712,2711,2708,2707,2705,2706,2705,2702,2700,2694,2684,2677,2670,2660,2639,2614,2600,2577,2562,2559,2562,2586,2626,2651,2684,2717,2751,2782,2808,2848,2869,2872,2875,2866,2854,2842,2814,2800,2771,2758,2748,2725,2713,2703,2687,2679,2670,2661,2644,2636,2623,2614,2602,2589,2578,2557,2530,2512,2502,2492,2493,2502,2516,2540,2561,2616,2675,2709,2746,2786,2845,2874,2880,2876,2869,2862,2841,2821,2809,2794,2780,2765,2753,2728,2716,2707,2697,2691,2682,2668,2658,2651,2645,2632,2612,2602,2592,2572,2558,2551,2536,2524,2520,2517,2523,2530,2545,2561,2607,2677,2725,2757,2793,2826,2852,2878,2903,2907,2910,2908,2895,2884,2874,2860,2849,2831,2808,2796,2772,2759,2749,2729,2717,2699,2684,2674,2662,2648,2627,2615,2605,2592,2583,2563,2550,2533,2519,2515,2512,2521,2545,2566,2592,2617,2681,2728,2756,2809,2854,2870,2885,2893,2897,2896,2893,2887,2865,2849,2838,2812,2789,2779,2767,2755,2735,2722,2715,2710,2697,2682,2674,2655,2633,2616,2591,2580,2566,2548,2532,2527,2528,2530,2550,2595,2659,2720,2756,2790,2822,2873,2892,2899,2902,2888,2869,2856,2841,2824,2809,2793,2767,2755,2747,2732,2719,2712,2710,2704,2692,2686,2676,2655,2643,2631,2619,2606,2593,2581,2569,2558,2546,2529,2528,2536,2548,2565,2614,2659,2687,2738,2805,2849,2870,2872,2871,2854,2826,2794,2774,2762,2749,2737,2729,2719,2710,2709,2707,2708,2709,2708,2704,2701,2692,2679,2668,2648,2640,2617,2594,2585,2581,2588,2604,2622,2646,2670,2707,2770,2800,2826,2849,2874,2884,2877,2861,2835,2806,2782,2770,2757,2737,2726,2717,2710,2703,2697,2692,2683,2672,2666,2657,2649,2641,2632,2622,2613,2593,2574,2566,2551,2532,2530,2529,2535,2544,2586,2621,2653,2689,2725,2758,2801,2855,2871,2885,2891,2888,2881,2872,2861,2850,2832,2809,2794,2770,2759,2737,2729,2715,2707,2697,2688,2681,2674,2661,2640,2627,2615,2603,2593,2584,2564,2549,2543,2540,2546,2559,2575,2598,2658,2695,2730,2767,2803,2831,2867,2897,2899,2895,2886,2876,2863,2849,2834,2821,2798,2768,2747,2738,2722,2697,2688,2666,2656,2648,2628,2612,2603,2582,2561,2547,2524,2515,2505,2497,2492,2488,2488,2488,2506,2537,2562,2589,2628,2702,2738,2773,2804,2849,2882,2891,2884,2865,2841,2818,2806,2792,2779,2754,2730,2718,2709,2700,2687,2673,2662,2641,2632,2620,2594,2580,2559,2534,2515,2502,2496,2493,2493,2500,2531,2583,2652,2697,2727,2784,2846,2872,2879,2885,2881,2871,2862,2841,2812,2794,2783,2769,2757,2742,2720,2710,2700,2691,2675,2666,2656,2648,2627,2605,2595,2576,2549,2537,2526,2514,2496,2487,2482,2476,2473,2472,2474,2483,2499,2519,2545,2575,2610,2649,2682,2748,2806,2829,2858,2884,2885,2884,2869,2856,2844,2830,2817,2802,2787,2773,2759,2745,2722,2712,2705,2698,2693,2688,2684,2680,2673,2664,2657,2648,2637,2624,2612,2601,2576,2561,2541,2518,2508,2497,2490,2487,2494,2528,2556,2579,2639,2690,2714,2756,2796,2805,2812,2809,2792,2777,2766,2742,2722,2712,2701,2689,2680,2670,2657,2654,2650,2649,2645,2641,2639,2634,2628,2623,2611,2591,2580,2569,2545,2530,2521,2506,2500,2501,2518,2552,2587,2659,2699,2740,2779,2817,2850,2878,2897,2908,2916,2913,2899,2887,2873,2845,2829,2818,2809,2801,2795,2793,2793,2796,2801,2814,2822,2829,2835,2841,2844,2841,2835,2830,2819,2808,2794,2779,2745,2720,2704,2669,2641,2633,2635,2647,2670,2726,2759,2794,2825,2879,2910,2919,2925,2923,2916,2903,2885,2839,2812,2787,2760,2735,2708,2687,2651,2609,2591,2574,2557,2543,2530,2504,2491,2468,2446,2438,2420,2396,2386,2376,2359,2352,2348,2342,2339,2341,2348,2360,2380,2402,2442,2521,2566,2611,2709,2761,2819,2865,2877,2890,2896,2896,2893,2876,2864,2853,2841,2823,2804,2793,2789,2788,2789,2795,2797,2795,2786,2779,2759,2743,2723,2695,2677,2669,2658,2640,2631,0,2,0
