1,2,3,4,5,6,7,8,9,10,11,12,13,14,15,16,17,18,19,20,21,22,23,24,25,26,27,28,29,30,31,32,33,34,35,36,37,38,39,40,41,42,43,44,45,46,47,48,49,50,51,52,53,54,55,56,57,58,59,60,61,62,63,64,65,66,67,68,69,70,71,72,73,74,75,76,77,78,79,80,81,82,83,84,85,86,87,88,89,90,91,92,93,94,95,96,97,98,99,100,101,102,103,104,105,106,107,108,109,110,111,112,113,114,115,116,117,118,119,120,121,122,123,124,125,126,127,128,129,130,131,132,133,134,135,136,137,138,139,140,141,142,143,144,145,146,147,148,149,150,151,152,153,154,155,156,157,158,159,160,161,162,163,164,165,166,167,168,169,170,171,172,173,174,175,176,177,178,179,180,181,182,183,184,185,186,187,188,189,190,191,192,193,194,195,196,197,198,199,200,201,202,203,204,205,206,207,208,209,210,211,212,213,214,215,216,217,218,219,220,221,222,223,224,225,226,227,228,229,230,231,232,233,234,235,236,237,238,239,240,241,242,243,244,245,246,247,248,249,250,251,252,253,254,255,256,257,258,259,260,261,262,263,264,265,266,267,268,269,270,271,272,273,274,275,276,277,278,279,280,281,282,283,284,285,286,287,288,289,290,291,292,293,294,295,296,297,298,299,300,301,302,303,304,305,306,307,308,309,310,311,312,313,314,315,316,317,318,319,320,321,322,323,324,325,326,327,328,329,330,331,332,333,334,335,336,337,338,339,340,341,342,343,344,345,346,347,348,349,350,351,352,353,354,355,356,357,358,359,360,361,362,363,364,365,366,367,368,369,370,371,372,373,374,375,376,377,378,379,380,381,382,383,384,385,386,387,388,389,390,391,392,393,394,395,396,397,398,399,400,401,402,403,404,405,406,407,408,409,410,411,412,413,414,415,416,417,418,419,420,421,422,423,424,425,426,427,428,429,430,431,432,433,434,435,436,437,438,439,440,441,442,443,444,445,446,447,448,449,450,451,452,453,454,455,456,457,458,459,460,461,462,463,464,465,466,467,468,469,470,471,472,473,474,475,476,477,478,479,480,481,482,483,484,485,486,487,488,489,490,491,492,493,494,495,496,497,498,499,500,501,502,503,504,505,506,507,508,509,510,511,512,513,514,515,516,517,518,519,520,521,522,523,524,525,526,527,528,529,530,531,532,533,534,535,536,537,538,539,540,541,542,543,544,545,546,547,548,549,550,551,552,553,554,555,556,557,558,559,560,561,562,563,564,565,566,567,568,569,570,571,572,573,574,575,576,577,578,579,580,581,582,583,584,585,586,587,588,589,590,591,592,593,594,595,596,597,598,599,600,601,602,603,604,605,606,607,608,609,610,611,612,613,614,615,616,617,618,619,620,621,622,623,624,625,626,627,628,629,630,631,632,633,634,635,636,637,638,639,640,641,642,643,644,645,646,647,648,649,650,651,652,653,654,655,656,657,658,659,660,661,662,663,664,665,666,667,668,669,670,671,672,673,674,675,676,677,678,679,680,681,682,683,684,685,686,687,688,689,690,691,692,693,694,695,696,697,698,699,700,701,702,703,704,705,706,707,708,709,710,711,712,713,714,715,716,717,718,719,720,721,722,723,724,725,726,727,728,729,730,731,732,733,734,735,736,737,738,739,740,741,742,743,744,745,746,747,748,749,750,751,752,753,754,755,756,757,758,759,760,761,762,763,764,765,766,767,768,769,770,771,772,773,774,775,776,777,778,779,780,781,782,783,784,785,786,787,788,789,790,791,792,793,794,795,796,797,798,799,800,801,802,803,804,805,806,807,808,809,810,811,812,813,814,815,816,817,818,819,820,821,822,823,824,825,826,827,828,829,830,831,832,833,834,835,836,837,838,839,840,841,842,843,844,845,846,847,848,849,850,851,852,853,854,855,856,857,858,859,860,861,862,863,864,865,866,867,868,869,870,871,872,873,874,875,876,877,878,879,880,881,882,883,884,885,886,887,888,889,890,891,892,893,894,895,896,897,898,899,900,901,902,903,904,905,906,907,908,909,910,911,912,913,914,915,916,917,918,919,920,921,922,923,924,925,926,927,928,929,930,931,932,933,934,935,936,937,938,939,940,941,942,943,944,945,946,947,948,949,950,951,952,953,954,955,956,957,958,959,960,961,962,963,964,965,966,967,968,969,970,971,972,973,974,975,976,977,978,979,980,981,982,983,984,985,986,987,988,989,990,991,992,993,994,995,996,997,998,999,1000,1001,1002,1003,1004,1005,1006,1007,1008,1009,1010,1011,1012,1013,1014,1015,1016,1017,1018,1019,1020,1021,1022,1023,1024,1025,1026,1027,1028,1029,1030,1031,1032,1033,1034,1035,1036,1037,1038,1039,1040,1041,1042,1043,1044,1045,1046,1047,1048,1049,1050,1051,1052,1053,1054,1055,1056,1057,1058,1059,1060,1061,1062,1063,1064,1065,1066,1067,1068,1069,1070,1071,1072,1073,1074,1075,1076,1077,1078,1079,1080,1081,1082,1083,1084,1085,1086,1087,1088,1089,1090,1091,1092,1093,1094,1095,1096,1097,1098,1099,1100,1101,1102,1103,1104,1105,1106,1107,1108,1109,1110,1111,1112,1113,1114,1115,1116,1117,1118,1119,1120,1121,1122,1123,1124,1125,1126,1127,1128,1129,1130,1131,1132,1133,1134,1135,1136,1137,1138,1139,1140,1141,1142,1143,1144,1145,1146,1147,1148,1149,1150,1151,1152,1153,1154,1155,1156,1157,1158,1159,1160,1161,1162,1163,1164,1165,1166,1167,1168,1169,1170,1171,1172,1173,1174,1175,1176,1177,1178,1179,1180,1181,1182,1183,1184,1185,1186,1187,1188,1189,1190,1191,1192,1193,1194,1195,1196,1197,1198,1199,1200,1201,1202,1203,1204,1205,1206,1207,1208,1209,1210,1211,1212,1213,1214,1215,1216,1217,1218,1219,1220,1221,1222,1223,1224,1225,1226,1227,1228,1229,1230,1231,1232,1233,1234,1235,1236,1237,1238,1239,1240,1241,1242,1243,1244,1245,1246,1247,1248,1249,1250,1251,1252,1253,1254,1255,1256,1257,1258,1259,1260,1261,1262,1263,1264,1265,1266,1267,1268,1269,1270,1271,1272,1273,1274,1275,1276,1277,1278,1279,1280,1281,1282,1283,1284,1285,1286,1287,1288,1289,1290,1291,1292,1293,1294,1295,1296,1297,1298,1299,1300,1301,1302,1303,1304,1305,1306,1307,1308,1309,1310,1311,1312,1313,1314,1315,1316,1317,1318,1319,1320,1321,1322,1323,1324,1325,1326,1327,1328,1329,1330,1331,1332,1333,1334,1335,1336,1337,1338,1339,1340,1341,1342,1343,1344,1345,1346,1347,1348,1349,1350,1351,1352,1353,1354,1355,1356,1357,1358,1359,1360,1361,1362,1363,1364,1365,1366,1367,1368,1369,1370,1371,1372,1373,1374,1375,1376,1377,1378,1379,1380,1381,1382,1383,1384,1385,1386,1387,1388,1389,1390,1391,1392,1393,1394,1395,1396,1397,1398,1399,1400,1401,1402,1403,1404,1405,1406,1407,1408,1409,1410,1411,1412,1413,1414,1415,1416,1417,1418,1419,1420,1421,1422,1423,1424,1425,1426,1427,1428,1429,1430,1431,1432,1433,1434,1435,1436,1437,1438,1439,1440,1441,1442,1443,1444,1445,1446,1447,1448,1449,1450,1451,1452,1453,1454,1455,1456,1457,1458,1459,1460,1461,1462,1463,1464,1465,1466,1467,1468,1469,1470,1471,1472,1473,1474,1475,1476,1477,1478,1479,1480,1481,1482,1483,1484,1485,1486,1487,1488,1489,1490,1491,1492,1493,1494,1495,1496,1497,1498,1499,1500,1501,1502,1503,1504,1505,1506,1507,1508,1509,1510,1511,1512,1513,1514,1515,1516,1517,1518,1519,1520,1521,1522,1523,1524,1525,1526,1527,1528,1529,1530,1531,1532,1533,1534,1535,1536,1537,1538,1539,1540,1541,1542,1543,1544,1545,1546,1547,1548,1549,1550,1551,1552,1553,1554,1555,1556,1557,1558,1559,1560,1561,1562,1563,1564,1565,1566,1567,1568,1569,1570,1571,1572,1573,1574,1575,1576,1577,1578,1579,1580,1581,1582,1583,1584,1585,1586,1587,1588,1589,1590,1591,1592,1593,1594,1595,1596,1597,1598,1599,1600,1601,1602,1603,1604,1605,1606,1607,1608,1609,1610,1611,1612,1613,1614,1615,1616,1617,1618,1619,1620,1621,1622,1623,1624,1625,1626,1627,1628,1629,1630,1631,1632,1633,1634,1635,1636,1637,1638,1639,1640,1641,1642,1643,1644,1645,1646,1647,1648,1649,1650,1651,1652,1653,1654,1655,1656,1657,1658,1659,1660,1661,1662,1663,1664,1665,1666,1667,1668,1669,1670,1671,1672,1673,1674,1675,1676,1677,1678,1679,1680,1681,1682,1683,1684,1685,1686,1687,1688,1689,1690,1691,1692,1693,1694,1695,1696,1697,1698,1699,1700,1701,1702,1703,1704,1705,1706,1707,1708,1709,1710,1711,1712,1713,1714,1715,1716,1717,1718,1719,1720,1721,1722,1723,1724,1725,1726,1727,1728,1729,1730,1731,1732,1733,1734,1735,1736,1737,1738,1739,1740,1741,1742,1743,1744,1745,1746,1747,1748,1749,1750,1751,1752,1753,1754,1755,1756,1757,1758,1759,1760,1761,1762,1763,1764,1765,1766,1767,1768,1769,1770,1771,1772,1773,1774,1775,1776,1777,1778,1779,1780,1781,1782,1783,1784,1785,1786,1787,1788,1789,1790,1791,1792,1793,1794,1795,1796,1797,1798,1799,1800,1801,1802,1803,1804,1805,1806,1807,1808,1809,1810,1811,1812,1813,1814,1815,1816,1817,1818,1819,1820,1821,1822,1823,1824,1825,1826,1827,1828,1829,1830,1831,1832,1833,1834,1835,1836,1837,1838,1839,1840,1841,1842,1843,1844,1845,1846,1847,1848,1849,1850,1851,1852,1853,1854,1855,1856,1857,1858,1859,1860,1861,1862,1863,1864,1865,1866,1867,1868,1869,1870,1871,1872,1873,1874,1875,1876,1877,1878,1879,1880,1881,1882,1883,1884,1885,1886,1887,1888,1889,1890,1891,1892,1893,1894,1895,1896,1897,1898,1899,1900,1901,1902,1903,1904,1905,1906,1907,1908,1909,1910,1911,1912,1913,1914,1915,1916,1917,1918,1919,1920,1921,1922,1923,1924,1925,1926,1927,1928,1929,1930,1931,1932,1933,1934,1935,1936,1937,1938,1939,1940,1941,1942,1943,1944,1945,1946,1947,1948,1949,1950,1951,1952,1953,1954,1955,1956,1957,1958,1959,1960,1961,1962,1963,1964,1965,1966,1967,1968,1969,1970,1971,1972,1973,1974,1975,1976,1977,1978,1979,1980,1981,1982,1983,1984,1985,1986,1987,1988,1989,1990,1991,1992,1993,1994,1995,1996,1997,1998,1999,2000,2001,2002,2003,2004,2005,2006,2007,2008,2009,2010,2011,2012,2013,2014,2015,2016,2017,2018,2019,2020,2021,2022,2023,2024,2025,2026,2027,2028,2029,2030,2031,2032,2033,2034,2035,2036,2037,2038,2039,2040,2041,2042,2043,2044,2045,2046,2047,2048,2049,2050,2051,2052,2053,2054,2055,2056,2057,2058,2059,2060,2061,2062,2063,2064,2065,2066,2067,2068,2069,2070,2071,2072,2073,2074,2075,2076,2077,2078,2079,2080,2081,2082,2083,2084,2085,2086,2087,2088,2089,2090,2091,2092,2093,2094,2095,2096,2097,2098,2099,2100,2101,2102,2103,2104,2105,2106,2107,2108,2109,2110,2111,2112,2113,2114,2115,2116,2117,2118,2119,2120,2121,2122,2123,2124,2125,2126,2127,2128,2129,2130,2131,2132,2133,2134,2135,2136,2137,2138,2139,2140,2141,2142,2143,2144,2145,2146,2147,2148,2149,2150,2151,2152,2153,2154,2155,2156,2157,2158,2159,2160,2161,2162,2163,2164,2165,2166,2167,2168,2169,2170,2171,2172,2173,2174,2175,2176,2177,2178,2179,2180,2181,2182,2183,2184,2185,2186,2187,2188,2189,2190,2191,2192,2193,2194,2195,2196,2197,2198,2199,2200,2201,2202,2203,2204,2205,2206,2207,2208,2209,2210,2211,2212,2213,2214,2215,2216,2217,2218,2219,2220,2221,2222,2223,2224,2225,2226,2227,2228,2229,2230,2231,2232,2233,2234,2235,2236,2237,2238,2239,2240,2241,2242,2243,2244,2245,2246,2247,2248,2249,2250,2251,2252,2253,2254,2255,2256,2257,2258,2259,2260,2261,2262,2263,2264,2265,2266,2267,2268,2269,2270,2271,2272,2273,2274,2275,2276,2277,2278,2279,2280,2281,2282,2283,2284,2285,2286,2287,2288,2289,2290,2291,2292,2293,2294,2295,2296,2297,2298,2299,2300,2301,2302,2303,2304,2305,2306,2307,2308,2309,2310,2311,2312,2313,2314,2315,2316,2317,2318,2319,2320,2321,2322,2323,2324,2325,2326,2327,2328,2329,2330,2331,2332,2333,2334,2335,2336,2337,2338,2339,2340,2341,2342,2343,2344,2345,2346,2347,2348,2349,2350,2351,2352,2353,2354,2355,2356,2357,2358,2359,2360,2361,2362,2363,2364,2365,2366,2367,2368,2369,2370,2371,2372,2373,2374,2375,2376,2377,2378,2379,2380,2381,2382,2383,2384,2385,2386,2387,2388,2389,2390,2391,2392,2393,2394,2395,2396,2397,2398,2399,2400,2401,2402,2403,2404,2405,2406,2407,2408,2409,2410,2411,2412,2413,2414,2415,2416,2417,2418,2419,2420,2421,2422,2423,2424,2425,2426,2427,2428,2429,2430,2431,2432,2433,2434,2435,2436,2437,2438,2439,2440,2441,2442,2443,2444,2445,2446,2447,2448,2449,2450,2451,2452,2453,2454,2455,2456,2457,2458,2459,2460,2461,2462,2463,2464,2465,2466,2467,2468,2469,2470,2471,2472,2473,2474,2475,2476,2477,2478,2479,2480,2481,2482,2483,2484,2485,2486,2487,2488,2489,2490,2491,2492,2493,2494,2495,2496,2497,2498,2499,2500,2501,2502,2503,2504,2505,2506,2507,2508,2509,2510,2511,2512,2513,2514,2515,2516,2517,2518,2519,2520,2521,2522,2523,2524,2525,2526,2527,2528,2529,2530,2531,2532,2533,2534,2535,2536,2537,2538,2539,2540,2541,2542,2543,2544,2545,2546,2547,2548,2549,2550,2551,2552,2553,2554,2555,2556,2557,2558,2559,2560,2561,2562,2563,2564,2565,2566,2567,2568,2569,2570,2571,2572,2573,2574,2575,2576,2577,2578,2579,2580,2581,2582,2583,2584,2585,2586,2587,2588,2589,2590,2591,2592,2593,2594,2595,2596,2597,2598,2599,2600,2601,2602,2603,2604,2605,2606,2607,2608,2609,2610,2611,2612,2613,2614,2615,2616,2617,2618,2619,2620,2621,2622,2623,2624,2625,2626,2627,2628,2629,2630,2631,2632,2633,2634,2635,2636,2637,2638,2639,2640,2641,2642,2643,2644,2645,2646,2647,2648,2649,2650,2651,2652,2653,2654,2655,2656,2657,2658,2659,2660,2661,2662,2663,2664,2665,2666,2667,2668,2669,2670,2671,2672,2673,2674,2675,2676,2677,2678,2679,2680,2681,2682,2683,2684,2685,2686,2687,2688,2689,2690,2691,2692,2693,2694,2695,2696,2697,2698,2699,2700,2701,2702,2703,2704,2705,2706,2707,2708,2709,2710,2711,2712,2713,2714,2715,2716,2717,2718,2719,2720,2721,2722,2723,2724,2725,2726,2727,2728,2729,2730,2731,2732,2733,2734,2735,2736,2737,2738,2739,2740,2741,2742,2743,2744,2745,2746,2747,2748,2749,2750,2751,2752,2753,2754,2755,2756,2757,2758,2759,2760,2761,2762,2763,2764,2765,2766,2767,2768,2769,2770,2771,2772,2773,2774,2775,2776,2777,2778,2779,2780,2781,2782,2783,2784,2785,2786,2787,2788,2789,2790,2791,2792,2793,2794,2795,2796,2797,2798,2799,2800,2801,2802,2803,2804,2805,2806,2807,2808,2809,2810,2811,2812,2813,2814,2815,2816,2817,2818,2819,2820,2821,2822,2823,2824,2825,2826,2827,2828,2829,2830,2831,2832,2833,2834,2835,2836,2837,2838,2839,2840,2841,2842,2843,2844,2845,2846,2847,2848,2849,2850,2851,2852,2853,2854,2855,2856,2857,2858,2859,2860,2861,2862,2863,2864,2865,2866,2867,2868,2869,2870,2871,2872,2873,2874,2875,2876,2877,2878,2879,2880,2881,2882,2883,2884,2885,2886,2887,2888,2889,2890,2891,2892,2893,2894,2895,2896,2897,2898,2899,2900,2901,2902,2903,2904,2905,2906,2907,2908,2909,2910,2911,2912,2913,2914,2915,2916,2917,2918,2919,2920,2921,2922,2923,2924,2925,2926,2927,2928,2929,2930,2931,2932,2933,2934,2935,2936,2937,2938,2939,2940,2941,2942,2943,2944,2945,2946,2947,2948,2949,2950,2951,2952,2953,2954,2955,2956,2957,2958,2959,2960,2961,2962,2963,2964,2965,2966,2967,2968,2969,2970,2971,2972,2973,2974,2975,2976,2977,2978,2979,2980,2981,2982,2983,2984,2985,2986,2987,2988,2989,2990,2991,2992,2993,2994,2995,2996,2997,2998,2999,3000,stress_score,anxiety_score,depression_score
2698,2712,2722,2735,2746,2759,2767,2776,2782,2786,2788,2787,2785,2781,2777,2769,2763,2754,2745,2735,2728,2717,2709,2700,2691,2682,2673,2667,2661,2656,2654,2652,2648,2648,2645,2644,2641,2641,2639,2638,2634,2631,2627,2626,2623,2619,2618,2617,2618,2616,2617,2615,2617,2616,2618,2617,2619,2619,2620,2620,2621,2621,2622,2624,2622,2621,2620,2622,2623,2628,2633,2641,2648,2659,2666,2675,2685,2694,2702,2710,2716,2718,2720,2721,2723,2720,2721,2721,2723,2723,2724,2723,2724,2724,2724,2721,2719,2719,2716,2716,2714,2713,2710,2710,2710,2711,2712,2713,2713,2714,2713,2713,2712,2711,2710,2707,2705,2703,2700,2697,2696,2694,2693,2689,2688,2686,2685,2684,2682,2679,2678,2676,2673,2670,2667,2666,2661,2660,2658,2655,2651,2651,2649,2650,2653,2660,2666,2673,2682,2692,2702,2713,2725,2734,2747,2757,2766,2773,2781,2787,2794,2800,2807,2814,2820,2826,2832,2837,2838,2842,2844,2845,2842,2840,2836,2831,2822,2817,2807,2799,2789,2778,2768,2758,2749,2739,2731,2724,2718,2711,2708,2703,2702,2700,2700,2698,2700,2701,2702,2702,2702,2702,2701,2699,2696,2693,2690,2685,2678,2674,2668,2667,2665,2668,2672,2676,2684,2693,2704,2716,2728,2739,2751,2762,2774,2782,2791,2797,2804,2809,2815,2817,2820,2821,2821,2818,2811,2803,2796,2787,2779,2770,2760,2751,2740,2730,2720,2712,2704,2695,2687,2679,2670,2661,2654,2645,2638,2631,2625,2620,2615,2608,2603,2597,2592,2587,2582,2575,2570,2566,2561,2556,2551,2548,2544,2541,2538,2536,2533,2533,2530,2532,2534,2539,2545,2555,2565,2577,2589,2601,2617,2631,2646,2658,2674,2686,2698,2708,2719,2728,2738,2748,2757,2766,2774,2780,2784,2786,2786,2786,2783,2780,2774,2768,2762,2757,2750,2746,2741,2736,2733,2730,2726,2723,2720,2716,2713,2711,2709,2703,2701,2698,2696,2693,2691,2690,2689,2686,2684,2683,2682,2682,2681,2681,2679,2679,2678,2678,2675,2674,2671,2668,2666,2666,2666,2670,2675,2682,2691,2699,2710,2720,2731,2742,2752,2760,2766,2771,2776,2778,2779,2779,2779,2781,2781,2781,2781,2780,2778,2775,2771,2768,2764,2761,2757,2753,2749,2746,2742,2740,2739,2736,2735,2733,2731,2728,2727,2724,2719,2716,2712,2708,2705,2699,2695,2690,2686,2681,2676,2673,2670,2668,2665,2664,2662,2659,2656,2653,2650,2648,2646,2647,2648,2650,2653,2660,2668,2677,2688,2699,2708,2718,2727,2733,2738,2743,2746,2747,2747,2746,2744,2744,2742,2741,2741,2738,2735,2731,2726,2723,2718,2714,2709,2705,2703,2699,2696,2694,2693,2693,2692,2691,2691,2691,2688,2687,2686,2683,2680,2677,2673,2668,2663,2657,2650,2643,2637,2630,2621,2613,2604,2595,2586,2578,2568,2562,2555,2547,2539,2533,2527,2523,2519,2516,2513,2512,2513,2516,2523,2531,2543,2557,2572,2587,2602,2618,2634,2649,2663,2674,2683,2689,2693,2695,2697,2701,2703,2705,2706,2707,2708,2707,2707,2707,2706,2705,2702,2701,2698,2694,2692,2690,2687,2687,2687,2686,2685,2683,2681,2678,2675,2673,2671,2669,2666,2662,2658,2654,2650,2648,2645,2641,2639,2636,2633,2630,2627,2625,2622,2619,2617,2614,2612,2611,2609,2607,2604,2602,2599,2598,2597,2597,2596,2599,2603,2610,2620,2632,2645,2658,2671,2685,2699,2711,2723,2731,2737,2742,2745,2749,2750,2750,2752,2752,2753,2755,2756,2756,2755,2753,2750,2748,2744,2742,2737,2733,2728,2723,2719,2716,2713,2711,2706,2704,2700,2696,2693,2690,2686,2682,2678,2673,2669,2663,2660,2654,2651,2648,2645,2641,2637,2633,2631,2628,2627,2624,2621,2621,2617,2616,2615,2619,2624,2631,2639,2649,2662,2676,2688,2701,2715,2727,2739,2748,2754,2758,2761,2761,2761,2761,2763,2762,2763,2761,2761,2760,2761,2761,2760,2760,2759,2757,2755,2754,2752,2752,2750,2749,2746,2745,2740,2736,2730,2726,2719,2712,2705,2697,2692,2685,2678,2672,2669,2662,2659,2653,2651,2647,2644,2640,2638,2636,2635,2632,2630,2630,2627,2626,2624,2623,2621,2620,2615,2614,2612,2614,2617,2625,2633,2644,2655,2666,2678,2691,2705,2717,2728,2736,2743,2746,2750,2750,2752,2752,2753,2754,2755,2754,2753,2752,2748,2746,2740,2736,2731,2726,2718,2713,2706,2703,2698,2696,2692,2692,2690,2689,2689,2688,2690,2688,2689,2687,2686,2683,2681,2676,2675,2669,2663,2656,2650,2642,2635,2628,2621,2615,2608,2604,2597,2594,2589,2586,2582,2580,2577,2577,2576,2579,2582,2588,2598,2609,2622,2638,2655,2672,2689,2704,2721,2731,2742,2748,2753,2756,2756,2755,2754,2752,2750,2748,2747,2749,2747,2748,2745,2744,2742,2742,2739,2736,2731,2729,2724,2721,2718,2714,2713,2709,2706,2702,2698,2694,2690,2684,2681,2673,2669,2664,2660,2656,2652,2649,2647,2647,2646,2646,2645,2647,2646,2647,2646,2648,2648,2650,2653,2658,2665,2673,2683,2695,2707,2718,2730,2741,2754,2764,2774,2780,2786,2790,2793,2793,2794,2794,2795,2796,2796,2795,2794,2793,2789,2787,2784,2782,2777,2775,2770,2767,2763,2760,2757,2756,2753,2752,2750,2747,2746,2742,2740,2736,2734,2730,2728,2723,2720,2713,2711,2707,2704,2701,2698,2695,2691,2687,2682,2680,2678,2676,2671,2668,2663,2660,2656,2654,2650,2649,2645,2642,2642,2644,2650,2658,2668,2678,2693,2704,2720,2731,2746,2757,2768,2774,2778,2781,2783,2784,2786,2785,2785,2787,2789,2793,2794,2798,2798,2799,2797,2796,2793,2791,2786,2781,2775,2769,2764,2758,2756,2750,2747,2743,2739,2734,2730,2725,2720,2714,2710,2703,2697,2689,2681,2674,2667,2660,2653,2647,2639,2636,2629,2625,2620,2617,2611,2609,2605,2601,2597,2593,2590,2587,2587,2588,2595,2601,2613,2622,2636,2648,2664,2677,2691,2703,2715,2722,2729,2734,2736,2740,2741,2743,2744,2746,2745,2747,2744,2744,2740,2738,2734,2732,2727,2723,2719,2715,2712,2708,2707,2705,2705,2702,2700,2697,2695,2691,2690,2686,2684,2681,2678,2675,2671,2669,2665,2663,2660,2659,2655,2655,2650,2649,2647,2646,2642,2640,2636,2635,2632,2630,2631,2632,2635,2641,2649,2657,2668,2678,2691,2700,2711,2720,2728,2733,2738,2740,2741,2742,2743,2744,2742,2743,2740,2743,2740,2739,2735,2735,2731,2729,2724,2721,2717,2714,2710,2707,2706,2703,2702,2699,2698,2694,2694,2689,2688,2684,2682,2678,2674,2671,2668,2663,2658,2654,2649,2647,2641,2640,2634,2632,2628,2626,2621,2619,2616,2615,2612,2609,2608,2605,2603,2601,2599,2597,2597,2598,2604,2609,2620,2631,2645,2657,2671,2684,2698,2711,2723,2733,2739,2745,2747,2749,2749,2751,2751,2754,2754,2757,2756,2758,2757,2757,2756,2753,2750,2748,2746,2741,2739,2734,2732,2729,2728,2724,2724,2722,2720,2716,2713,2709,2705,2700,2695,2690,2683,2679,2671,2668,2662,2658,2653,2651,2646,2644,2640,2637,2634,2631,2628,2625,2624,2621,2619,2614,2613,2611,2611,2608,2610,2613,2620,2627,2639,2650,2663,2679,2692,2707,2720,2735,2745,2756,2761,2769,2770,2773,2772,2774,2774,2776,2777,2778,2778,2777,2774,2771,2769,2764,2761,2757,2754,2748,2746,2742,2739,2736,2735,2731,2730,2728,2724,2720,2716,2711,2704,2701,2696,2692,2686,2682,2676,2674,2668,2665,2660,2656,2652,2649,2645,2638,2634,2629,2626,2620,2617,2611,2607,2602,2598,2593,2593,2593,2596,2602,2611,2620,2630,2645,2658,2673,2686,2701,2710,2722,2727,2731,2732,2737,2737,2738,2738,2738,2739,2739,2740,2739,2740,2738,2740,2736,2736,2731,2729,2725,2723,2719,2717,2715,2712,2709,2705,2704,2700,2698,2695,2694,2688,2688,2682,2680,2677,2675,2670,2667,2664,2661,2658,2654,2651,2646,2644,2640,2639,2634,2632,2628,2626,2623,2621,2616,2614,2610,2609,2606,2602,2599,2595,2594,2592,2589,2586,2587,2586,2589,2592,2602,2614,2628,2642,2659,2676,2693,2711,2727,2743,2755,2766,2771,2777,2777,2779,2778,2780,2778,2779,2778,2778,2776,2774,2774,2770,2768,2764,2762,2757,2756,2750,2748,2743,2743,2739,2737,2734,2734,2731,2727,2724,2719,2715,2709,2707,2699,2696,2689,2685,2677,2673,2666,2662,2656,2653,2648,2642,2638,2634,2630,2626,2624,2618,2618,2613,2611,2604,2603,2599,2597,2594,2594,2594,2597,2601,2607,2618,2628,2642,2654,2671,2682,2697,2707,2718,2727,2735,2737,2741,2744,2746,2746,2746,2748,2749,2751,2751,2752,2751,2752,2748,2747,2743,2742,2736,2733,2730,2727,2724,2720,2716,2714,2712,2707,2705,2700,2698,2690,2687,2679,2676,2669,2664,2657,2652,2647,2643,2639,2634,2630,2625,2623,2619,2617,2612,2609,2604,2604,2599,2597,2593,2591,2589,2587,2584,2580,2579,2576,2576,2571,2573,2573,2579,2583,2594,2605,2621,2634,2652,2667,2684,2701,2714,2726,2735,2746,2751,2753,2755,2760,2760,2764,2765,2767,2769,2772,2773,2773,2773,2773,2771,2768,2766,2763,2761,2757,2754,2749,2748,2745,2743,2740,2738,2735,2734,2731,2727,2724,2721,2719,2713,2710,2706,2701,2695,2693,2689,2687,2683,2680,2674,2668,2662,2655,2646,2638,2629,2617,2609,2597,2589,2578,2571,2564,2560,2554,2551,2546,2543,2539,2535,2534,2534,2536,2538,2545,2552,2564,2573,2587,2600,2613,2623,2636,2645,2654,2659,2662,2664,2666,2668,2666,2668,2668,2671,2671,2673,2671,2674,2671,2670,2667,2664,2661,2657,2652,2648,2645,2640,2638,2635,2635,2632,2631,2628,2626,2623,2623,2619,2617,2614,2611,2608,2604,2603,2601,2599,2598,2599,2595,2597,2595,2595,2592,2593,2591,2589,2587,2586,2585,2584,2581,2579,2578,2575,2574,2571,2572,2572,2576,2577,2586,2595,2607,2618,2633,2647,2662,2677,2690,2703,2714,2724,2730,2734,2738,2743,2743,2746,2747,2749,2748,2750,2750,2749,2749,2748,2747,2744,2743,2740,2738,2734,2733,2729,2730,2728,2726,2725,2726,2726,2725,2725,2726,2726,2726,2728,2727,2729,2729,2731,2730,2732,2731,2732,2730,2730,2728,2725,2721,2717,2714,2710,2708,2702,2701,2697,2695,2690,2688,2684,2684,2682,2683,2684,2688,2695,2703,2713,2723,2737,2748,2763,2773,2785,2794,2802,2806,2811,2812,2813,2810,2807,2805,2802,2799,2793,2790,2784,2775,2770,2764,2760,2755,2752,2745,2743,2739,2735,2730,2727,2724,2722,2720,2717,2715,2712,2712,2708,2707,2704,2704,2703,2703,2700,2702,2700,2700,2701,2700,2699,2698,2697,2695,2694,2690,2689,2685,2683,2678,2675,2669,2667,2664,2660,2655,2652,2649,2644,2642,2639,2636,2633,2635,2635,2640,2645,2653,2661,2673,2683,2694,2705,2718,2730,2740,2748,2754,2761,2764,2767,2767,2770,2770,2772,2772,2773,2773,2774,2773,2772,2771,2769,2768,2765,2765,2761,2759,2755,2752,2748,2746,2743,2741,2738,2736,2732,2728,2725,2721,2718,2714,2710,2707,2704,2698,2697,2692,2691,2688,2686,2685,2683,2682,2682,2680,2681,2680,2678,2679,2676,2675,2672,2671,2669,2670,2671,2675,2679,2685,2690,2697,2708,2718,2729,2738,2747,2753,2760,2763,2767,2769,2771,2769,2770,2769,2766,2766,2763,2761,2757,2754,2751,2747,2745,2742,2739,2733,2730,2725,2723,2721,2717,2712,2708,2702,2695,2689,2683,2679,2671,2665,2659,2654,2649,2646,2640,2637,2635,2631,2627,2625,2624,2623,2621,2618,2617,2615,2614,2611,2611,2608,2608,2605,2604,2606,2609,2616,2624,2635,2646,2660,2675,2689,2705,2720,2735,2747,2759,2768,2776,2785,2789,2791,2791,2792,2791,2789,2787,2784,2778,2769,2761,2751,2741,2730,2720,2707,2696,2683,2669,2658,2648,2639,2631,2623,2615,2612,2610,2608,2609,2607,2607,2607,2608,2609,2610,2607,2607,2607,2608,2608,2611,2613,2617,2620,2622,2626,2629,2635,2637,2641,2642,2645,2645,2644,2642,2640,2638,2635,2631,2628,2626,2625,2631,2643,2653,2666,2678,2691,2704,2717,2728,2740,2746,2753,2757,2759,2761,2761,2762,2765,2769,2772,2777,2779,2783,2784,2785,2783,2781,2771,2762,2755,2747,2740,2733,2725,2719,2712,2707,2702,2700,2696,2692,2687,2683,2677,2673,2668,2664,2660,2655,2652,2647,2642,2638,2634,2628,2627,2622,2621,2619,2620,2620,2625,2629,2635,2642,2650,2658,2666,2675,2684,2694,2703,2711,2716,2723,2727,2732,2734,2736,2738,2738,2736,2734,2731,2728,2727,2724,2723,2723,2722,2721,2722,2721,2722,2720,2720,2718,2716,2715,2714,2711,2710,2711,2710,2711,2711,2714,2716,2721,2723,2724,2726,2725,2727,2726,2726,2725,2723,2720,2716,2713,2709,2706,2701,2698,2694,2691,2687,2684,2680,2680,2679,2677,2676,2675,2676,2674,2674,2673,2672,2674,2676,2679,2686,2704,2714,2725,2736,2757,2771,2777,2784,2790,2794,2796,2797,2797,2796,2798,2798,2799,2799,2800,2801,2800,2798,2793,2789,2785,2779,2772,2768,2762,2756,2752,2747,2742,2737,2728,2722,2718,2714,2709,2706,2702,2700,2697,2694,2691,2688,2688,2687,2685,2683,2680,2677,2675,2672,2669,2665,2662,2658,2651,2645,2643,2641,2638,2635,2634,2633,2631,2631,2632,2638,2645,2652,2664,2676,2689,2701,2714,2728,2740,2752,2762,2770,2775,2780,2781,2782,2783,2785,2785,2785,2786,2787,2786,2785,2782,2781,2778,2772,2765,2762,2758,2755,2752,2749,2746,2743,2740,2736,2733,2731,2726,2722,2718,2714,2710,2707,2704,2700,2697,2694,2691,2687,2683,2681,2679,2676,2672,2669,2662,2658,2655,2652,2649,2644,2639,2641,2643,2647,2653,2663,2671,2682,2692,2704,2715,2725,2735,2741,2745,2750,2752,2752,2752,2752,2752,2752,2751,2751,2749,2746,2742,2738,2735,2730,2725,2721,2717,2714,2712,2710,2708,2705,2704,2703,2702,2700,2698,2696,2695,2691,2689,2684,2679,2675,2670,2664,2656,2652,2646,2641,2632,2625,2617,2608,2601,2599,2597,2596,2593,2590,2587,2584,2583,2580,2579,2575,2570,2568,2569,2573,2578,2586,2609,2627,2643,2657,2684,2710,2721,2732,2739,2744,2748,2749,2751,2751,2753,2753,2754,2753,2754,2753,2753,2751,2748,2745,2739,2735,2730,2726,2716,2706,2702,2700,2696,2694,2692,2689,2684,2682,2679,2673,2669,2665,2659,2651,2645,2640,2634,2625,2616,2613,2609,2605,2599,2596,2594,2591,2588,2585,2583,2581,2579,2576,2574,2571,2571,2569,2565,2563,2566,2569,2577,2585,2598,2612,2631,2664,2697,2721,2730,2736,2741,2743,2746,2748,2749,2752,2751,2751,2752,2750,2748,2747,2746,2745,2740,2736,2733,2732,2731,2732,2731,2727,2724,2724,2721,2719,2715,2712,2708,2704,2700,2696,2690,2680,2675,2666,2663,2658,2650,2648,2645,2641,2640,2638,2637,2638,2640,2645,2649,2664,2684,2695,2714,2740,2752,2776,2793,2799,2805,2807,2808,2810,2813,2814,2815,2816,2813,2812,2811,2807,2802,2798,2789,2784,2782,2778,2768,2763,2758,2753,2747,2742,2732,2718,2711,2705,2697,2690,2682,2677,2670,2656,2652,2646,2640,2636,2626,2620,2618,2610,2599,2594,2592,2587,2583,2580,2578,2572,2568,2563,2561,2560,2559,2570,2583,2592,2617,2647,2665,2686,2705,2723,2740,2765,2773,2782,2785,2788,2788,2790,2792,2794,2794,2794,2794,2793,2793,2786,2779,2770,2762,2755,2746,2738,2735,2732,2721,2715,2710,2705,2698,2687,2682,2677,2670,2666,2660,2655,2647,2637,2634,2625,2619,2609,2604,2600,2594,2587,2583,2581,2575,2571,2569,2563,2560,2561,2562,2567,2575,2586,2595,2624,2647,2663,2682,2698,2714,2728,2738,2747,2753,2758,2763,2765,2772,2774,2776,2779,2778,2777,2776,2770,2765,2762,2759,2755,2754,2750,2746,2740,2735,2734,2730,2729,2722,2719,2715,2711,2706,2700,2693,2685,2683,2682,2680,2680,2678,2678,2675,2675,2673,2668,2670,2670,2673,2676,2685,2707,2728,2739,2755,2777,2785,2793,2800,2803,2808,2809,2812,2811,2813,2815,2817,2814,2812,2809,2800,2796,2791,2780,2774,2769,2762,2756,2748,2742,2735,2721,2711,2704,2695,2688,2676,2667,2662,2651,2639,2628,2617,2615,2609,2601,2594,2592,2588,2586,2582,2576,2573,2571,2565,2561,2559,2554,2551,2553,2555,2569,2582,2613,2631,2647,2682,2720,2737,2747,2755,2760,2768,2771,2773,2777,2779,2781,2784,2784,2784,2780,2778,2772,2770,2763,2752,2746,2737,2730,2726,2718,2709,2705,2692,2684,2679,2668,2656,2648,2644,2636,2627,2623,2618,2613,2609,2604,2601,2594,2589,2588,2582,2580,2573,2572,2563,2556,2554,2548,2544,2540,2541,2559,2576,2594,2633,2670,2687,2703,2719,2729,2746,2753,2759,2765,2768,2772,2774,2777,2778,2776,2775,2772,2768,2765,2757,2751,2741,2739,2735,2728,2726,2721,2717,2709,2701,2692,2683,2677,2664,2659,2656,2649,2646,2639,2630,2621,2618,2613,2604,2601,2598,2593,2590,2586,2583,2579,2581,2593,2604,2614,2629,2661,2693,2708,2723,2734,2743,2754,2759,2762,2769,2774,2775,2779,2780,2780,2777,2772,2768,2766,2762,2756,2753,2747,2745,2737,2725,2720,2713,2704,2697,2690,2683,2669,2660,2648,2644,2634,2625,2620,2614,2606,2602,2599,2590,2585,2581,2572,2569,2573,2582,2590,2614,2630,2662,2695,2710,2722,2738,2751,2761,2770,2774,2775,2779,2779,2780,2780,2774,2769,2767,2758,2751,2749,2740,2734,2731,2728,2719,2712,2708,2699,2685,2678,2672,2658,2650,2643,6,2,0
2851,2846,2837,2830,2819,2810,2800,2793,2785,2782,2773,2768,2760,2756,2750,2746,2737,2732,2724,2716,2707,2699,2689,2682,2672,2662,2652,2644,2635,2627,2618,2612,2605,2599,2593,2591,2587,2583,2580,2579,2578,2576,2575,2573,2572,2570,2567,2565,2562,2557,2551,2546,2541,2537,2534,2534,2539,2545,2556,2572,2594,2618,2645,2673,2703,2732,2759,2781,2803,2819,2830,2838,2843,2844,2844,2842,2840,2837,2835,2830,2826,2820,2815,2805,2800,2793,2788,2780,2777,2772,2769,2765,2764,2761,2762,2758,2756,2751,2747,2739,2735,2725,2717,2707,2698,2686,2678,2667,2658,2649,2640,2629,2623,2615,2611,2604,2600,2596,2593,2589,2588,2583,2581,2575,2572,2569,2569,2569,2574,2581,2593,2606,2626,2646,2670,2692,2716,2737,2759,2774,2789,2799,2806,2810,2812,2812,2813,2811,2809,2805,2800,2795,2790,2783,2777,2770,2760,2751,2742,2734,2726,2719,2713,2708,2703,2698,2693,2691,2687,2683,2677,2671,2663,2655,2644,2636,2624,2615,2604,2595,2585,2579,2571,2567,2562,2560,2557,2557,2555,2556,2553,2556,2555,2555,2552,2552,2549,2548,2543,2541,2535,2533,2525,2523,2520,2524,2529,2541,2554,2576,2596,2624,2650,2681,2711,2743,2769,2793,2810,2828,2840,2849,2853,2859,2861,2863,2860,2861,2859,2859,2853,2850,2844,2839,2830,2822,2813,2805,2796,2789,2782,2777,2771,2768,2763,2761,2757,2753,2749,2746,2739,2733,2725,2717,2709,2700,2689,2680,2671,2661,2652,2643,2634,2623,2616,2608,2601,2595,2590,2584,2579,2574,2572,2567,2564,2560,2556,2551,2547,2542,2537,2531,2527,2520,2517,2515,2515,2517,2527,2538,2557,2576,2601,2627,2657,2687,2717,2745,2772,2791,2809,2821,2834,2838,2844,2843,2843,2839,2838,2833,2830,2821,2815,2805,2797,2788,2781,2771,2767,2756,2750,2742,2740,2736,2732,2725,2722,2714,2709,2701,2697,2690,2684,2673,2667,2660,2654,2647,2642,2634,2629,2621,2616,2609,2605,2599,2594,2589,2584,2580,2579,2575,2575,2572,2571,2570,2571,2574,2581,2590,2602,2617,2635,2653,2673,2695,2715,2734,2752,2768,2779,2788,2794,2798,2799,2801,2800,2800,2798,2797,2793,2790,2787,2784,2778,2776,2769,2764,2757,2752,2745,2741,2733,2726,2719,2712,2703,2699,2689,2683,2673,2667,2657,2650,2642,2637,2629,2624,2615,2612,2604,2601,2595,2594,2591,2591,2587,2588,2583,2583,2578,2578,2573,2570,2564,2560,2553,2549,2545,2548,2549,2557,2567,2581,2598,2622,2646,2673,2699,2726,2750,2773,2791,2807,2821,2832,2838,2843,2846,2850,2851,2850,2849,2848,2845,2840,2834,2827,2821,2814,2805,2798,2791,2785,2779,2774,2770,2766,2763,2756,2752,2747,2741,2735,2728,2719,2712,2703,2694,2685,2678,2667,2659,2650,2642,2632,2625,2617,2612,2606,2600,2592,2590,2586,2586,2581,2580,2576,2576,2573,2572,2569,2569,2567,2566,2565,2573,2579,2593,2607,2628,2648,2674,2697,2724,2750,2773,2792,2812,2823,2835,2840,2846,2847,2849,2847,2848,2844,2843,2837,2836,2829,2825,2816,2810,2800,2792,2782,2775,2766,2760,2751,2745,2737,2732,2724,2720,2714,2709,2704,2700,2692,2687,2682,2678,2672,2669,2664,2659,2655,2650,2645,2642,2637,2634,2631,2628,2625,2622,2621,2619,2616,2615,2613,2611,2609,2607,2604,2601,2600,2601,2604,2607,2615,2626,2640,2656,2676,2695,2716,2735,2755,2770,2786,2796,2805,2809,2813,2813,2815,2812,2812,2809,2808,2804,2803,2797,2793,2787,2783,2777,2774,2769,2767,2762,2760,2756,2756,2753,2752,2748,2744,2735,2729,2718,2711,2700,2690,2678,2668,2656,2647,2636,2630,2621,2617,2609,2606,2600,2598,2594,2593,2590,2590,2587,2588,2585,2583,2580,2578,2575,2575,2575,2580,2586,2597,2608,2623,2638,2656,2675,2694,2711,2727,2739,2748,2756,2761,2763,2762,2759,2754,2747,2737,2725,2713,2700,2685,2670,2655,2642,2629,2618,2608,2600,2592,2588,2583,2580,2576,2574,2572,2570,2569,2570,2570,2573,2575,2579,2581,2584,2586,2591,2593,2595,2593,2595,2593,2594,2591,2591,2590,2592,2591,2593,2593,2598,2599,2603,2603,2608,2608,2611,2611,2616,2619,2627,2634,2647,2661,2679,2697,2718,2738,2761,2779,2799,2812,2828,2835,2843,2844,2846,2844,2845,2842,2841,2838,2836,2832,2830,2827,2825,2822,2820,2815,2813,2810,2807,2803,2800,2796,2792,2787,2782,2777,2770,2760,2751,2739,2727,2714,2701,2688,2675,2661,2648,2637,2627,2617,2608,2600,2593,2587,2580,2576,2572,2569,2564,2562,2558,2556,2555,2554,2553,2552,2550,2548,2545,2545,2543,2546,2548,2554,2560,2571,2582,2598,2615,2635,2652,2674,2692,2710,2725,2740,2750,2761,2768,2775,2778,2784,2785,2787,2786,2787,2782,2781,2775,2772,2764,2760,2754,2751,2744,2742,2737,2735,2730,2730,2726,2723,2717,2713,2706,2702,2694,2689,2681,2676,2669,2663,2656,2654,2648,2645,2639,2637,2634,2633,2628,2626,2623,2620,2614,2610,2605,2602,2597,2593,2587,2583,2579,2579,2580,2585,2592,2603,2616,2631,2647,2665,2686,2704,2722,2739,2754,2765,2775,2782,2789,2794,2800,2802,2806,2807,2806,2804,2803,2798,2795,2789,2784,2777,2772,2765,2761,2757,2755,2752,2750,2747,2745,2741,2739,2734,2730,2723,2719,2710,2704,2694,2688,2679,2672,2664,2656,2648,2643,2633,2631,2623,2619,2613,2610,2605,2604,2599,2598,2593,2592,2586,2586,2583,2586,2587,2595,2601,2615,2628,2646,2664,2686,2707,2728,2744,2760,2773,2785,2790,2796,2798,2799,2798,2797,2794,2794,2791,2790,2787,2786,2783,2782,2780,2779,2778,2778,2777,2777,2776,2777,2776,2774,2772,2769,2765,2760,2753,2745,2737,2727,2717,2707,2697,2686,2676,2666,2658,2650,2643,2635,2630,2625,2621,2616,2614,2613,2612,2609,2608,2604,2602,2597,2594,2588,2585,2579,2575,2572,2574,2576,2585,2592,2609,2623,2643,2662,2682,2702,2723,2738,2754,2765,2777,2783,2790,2793,2800,2802,2807,2808,2813,2813,2816,2815,2816,2813,2812,2807,2805,2798,2795,2788,2785,2778,2774,2767,2764,2757,2751,2744,2738,2730,2723,2715,2707,2699,2692,2682,2675,2667,2660,2651,2644,2638,2632,2625,2620,2615,2612,2610,2609,2607,2605,2604,2602,2599,2597,2593,2589,2586,2582,2580,2579,2582,2588,2598,2611,2628,2646,2668,2689,2713,2735,2756,2774,2791,2803,2814,2822,2829,2832,2836,2835,2836,2833,2831,2826,2821,2813,2807,2797,2792,2782,2776,2766,2762,2755,2750,2744,2742,2736,2734,2728,2725,2718,2715,2708,2704,2697,2694,2688,2683,2676,2673,2666,2660,2653,2647,2638,2632,2624,2618,2610,2608,2601,2598,2595,2593,2590,2590,2589,2590,2590,2594,2596,2604,2613,2626,2639,2655,2672,2691,2708,2724,2739,2754,2764,2772,2776,2779,2780,2781,2779,2779,2777,2776,2774,2771,2768,2765,2762,2758,2754,2751,2747,2743,2739,2735,2732,2729,2726,2721,2718,2714,2710,2705,2701,2696,2691,2686,2682,2676,2675,2669,2666,2660,2657,2650,2645,2640,2633,2626,2621,2612,2605,2595,2590,2582,2577,2570,2567,2564,2565,2565,2573,2583,2598,2610,2630,2649,2671,2691,2712,2729,2747,2759,2773,2781,2788,2793,2796,2796,2798,2797,2798,2795,2794,2790,2787,2781,2777,2772,2771,2765,2763,2757,2755,2750,2748,2744,2742,2739,2734,2728,2722,2715,2709,2702,2696,2689,2681,2672,2663,2655,2646,2638,2630,2621,2614,2606,2598,2593,2587,2582,2579,2575,2571,2567,2565,2562,2558,2557,2554,2552,2551,2552,2553,2559,2566,2576,2589,2606,2623,2644,2665,2688,2708,2729,2745,2761,2774,2783,2789,2795,2798,2800,2801,2804,2803,2802,2800,2796,2791,2786,2779,2772,2766,2760,2751,2745,2738,2732,2727,2723,2717,2713,2708,2703,2695,2689,2681,2676,2667,2660,2651,2644,2635,2629,2621,2615,2608,2603,2598,2595,2591,2589,2587,2589,2587,2589,2588,2589,2590,2591,2591,2592,2593,2594,2594,2597,2599,2607,2617,2630,2645,2664,2685,2707,2729,2753,2775,2796,2815,2830,2842,2852,2860,2865,2868,2871,2873,2872,2872,2870,2868,2864,2858,2851,2843,2833,2823,2812,2803,2792,2783,2771,2763,2753,2744,2734,2725,2713,2703,2690,2678,2667,2657,2645,2637,2629,2622,2616,2612,2607,2605,2603,2603,2601,2601,2599,2598,2595,2594,2591,2590,2586,2582,2577,2574,2570,2569,2569,2574,2579,2589,2601,2617,2635,2656,2677,2697,2717,2737,2753,2768,2777,2788,2792,2795,2796,2795,2793,2789,2784,2779,2771,2764,2755,2748,2740,2734,2727,2721,2717,2713,2710,2709,2708,2706,2705,2704,2701,2699,2695,2692,2688,2683,2677,2670,2664,2657,2650,2642,2634,2627,2621,2614,2609,2604,2600,2596,2593,2591,2589,2585,2584,2582,2582,2583,2587,2595,2607,2621,2641,2660,2684,2708,2732,2754,2777,2794,2810,2821,2830,2834,2838,2837,2837,2834,2832,2827,2824,2818,2814,2806,2801,2795,2791,2785,2782,2775,2773,2769,2768,2765,2763,2759,2754,2748,2743,2734,2728,2716,2707,2695,2685,2674,2664,2654,2644,2633,2624,2613,2604,2594,2585,2575,2567,2559,2552,2544,2538,2533,2529,2526,2526,2529,2538,2549,2562,2579,2599,2621,2644,2669,2695,2719,2742,2760,2777,2791,2802,2812,2819,2827,2831,2835,2837,2838,2837,2836,2834,2831,2827,2823,2817,2813,2806,2800,2796,2791,2786,2781,2776,2772,2764,2758,2750,2743,2733,2725,2714,2704,2692,2682,2671,2662,2650,2641,2631,2623,2613,2606,2598,2593,2587,2583,2577,2575,2571,2568,2563,2561,2558,2556,2554,2558,2561,2570,2579,2595,2614,2637,2660,2685,2708,2733,2753,2774,2790,2805,2814,2819,2823,2825,2826,2828,2827,2828,2826,2825,2822,2820,2816,2812,2807,2800,2792,2786,2779,2773,2767,2761,2755,2749,2742,2737,2730,2723,2716,2709,2701,2694,2687,2678,2670,2663,2654,2647,2639,2629,2620,2613,2605,2596,2590,2585,2579,2574,2571,2568,2564,2560,2557,2555,2552,2550,2546,2545,2544,2544,2545,2553,2563,2575,2592,2611,2635,2660,2686,2714,2741,2765,2786,2803,2818,2829,2837,2841,2843,2841,2841,2838,2836,2833,2830,2826,2821,2816,2809,2804,2799,2792,2786,2780,2774,2768,2762,2756,2749,2743,2736,2730,2722,2715,2708,2699,2691,2683,2675,2667,2658,2648,2639,2629,2621,2612,2605,2597,2588,2581,2574,2568,2564,2560,2556,2553,2551,2549,2547,2545,2544,2543,2543,2542,2542,2541,2542,2545,2552,2561,2575,2593,2613,2636,2660,2686,2712,2739,2762,2782,2799,2812,2822,2829,2833,2837,2840,2841,2842,2843,2843,2841,2838,2834,2830,2823,2816,2807,2798,2788,2777,2769,2760,2752,2745,2737,2729,2721,2714,2704,2694,2684,2674,2661,2649,2635,2625,2614,2604,2593,2586,2579,2574,2570,2567,2564,2561,2557,2554,2549,2546,2542,2539,2536,2531,2526,2523,2521,2522,2527,2534,2545,2561,2579,2601,2626,2652,2678,2705,2729,2753,2772,2789,2802,2812,2819,2823,2825,2826,2826,2824,2821,2818,2813,2807,2800,2792,2784,2776,2768,2760,2754,2748,2741,2736,2731,2726,2723,2720,2716,2710,2704,2697,2691,2684,2677,2670,2662,2652,2641,2631,2623,2611,2603,2592,2585,2576,2568,2561,2556,2550,2547,2543,2541,2539,2540,2538,2540,2543,2548,2555,2568,2582,2602,2623,2646,2671,2699,2723,2749,2772,2793,2809,2826,2836,2846,2851,2854,2855,2859,2859,2860,2857,2856,2850,2845,2836,2830,2822,2815,2806,2798,2790,2783,2776,2770,2764,2758,2752,2748,2740,2735,2727,2719,2711,2703,2695,2689,2682,2675,2666,2659,2650,2643,2635,2627,2619,2611,2602,2595,2588,2581,2575,2570,2565,2562,2558,2556,2553,2550,2549,2547,2546,2545,2546,2548,2553,2561,2573,2590,2613,2636,2664,2693,2725,2757,2789,2816,2841,2861,2878,2889,2898,2901,2903,2903,2902,2900,2898,2893,2890,2883,2879,2872,2866,2857,2849,2839,2829,2818,2811,2803,2798,2790,2785,2777,2772,2765,2761,2753,2748,2739,2732,2723,2715,2706,2699,2691,2684,2674,2669,2660,2654,2645,2640,2633,2629,2624,2619,2613,2609,2602,2599,2594,2588,2582,2577,2570,2565,2559,2555,2551,2550,2549,2554,2562,2575,2592,2611,2632,2657,2684,2710,2736,2761,2782,2801,2816,2826,2834,2838,2840,2840,2839,2836,2834,2830,2823,2815,2807,2797,2789,2778,2768,2757,2749,2740,2735,2729,2727,2724,2725,2724,2726,2725,2726,2724,2722,2717,2713,2707,2701,2692,2683,2671,2663,2651,2641,2629,2621,2612,2606,2598,2594,2586,2583,2577,2573,2566,2564,2557,2552,2543,2537,2529,2525,2516,2512,2506,2506,2503,2509,2516,2531,2547,2570,2591,2620,2646,2676,2705,2733,2754,2774,2787,2799,2807,2812,2814,2816,2815,2815,2812,2810,2805,2801,2795,2789,2782,2776,2769,2762,2754,2749,2745,2742,2740,2738,2735,2732,2730,2725,2722,2718,2713,2706,2698,2691,2684,2675,2668,2657,2649,2641,2633,2622,2613,2605,2596,2587,2580,2573,2569,2564,2558,2552,2550,2545,2544,2542,2543,2543,2548,2555,2566,2581,2602,2623,2647,2669,2696,2721,2746,2766,2783,2796,2808,2812,2817,2816,2819,2815,2813,2808,2804,2797,2793,2785,2779,2771,2767,2759,2754,2749,2747,2744,2744,2740,2741,2738,2735,2729,2727,2719,2705,2697,2685,2676,2662,2653,2642,2634,2622,2616,2605,2596,2588,2584,2578,2574,2569,2565,2560,2558,2553,2549,2544,2539,2533,2529,2527,2525,2526,2530,2537,2550,2566,2586,2612,2639,2668,2697,2727,2756,2783,2804,2823,2837,2851,2858,2863,2865,2867,2869,2868,2863,2860,2853,2845,2834,2826,2815,2806,2794,2783,2771,2764,2756,2751,2747,2744,2738,2735,2731,2728,2723,2719,2713,2710,2701,2697,2688,2684,2674,2669,2659,2653,2644,2638,2628,2624,2615,2610,2601,2599,2592,2589,2583,2581,2575,2574,2568,2567,2562,2560,2555,2551,2546,2545,2542,2546,2550,2560,2571,2589,2609,2634,2660,2689,2716,2744,2769,2791,2811,2828,2841,2852,2858,2863,2865,2865,2864,2864,2862,2859,2853,2847,2840,2834,2829,2823,2817,2811,2804,2798,2792,2786,2781,2774,2769,2760,2752,2744,2737,2729,2720,2711,2703,2692,2684,2672,2664,2652,2643,2632,2624,2614,2606,2598,2591,2583,2579,2573,2571,2568,2567,2563,2563,2560,2560,2558,2558,2555,2554,2549,2545,2540,2536,2530,2528,2524,2526,2529,2538,2548,2568,2589,2616,2645,2678,2709,2743,2771,2800,2822,2843,2858,2872,2879,2886,2887,2890,2888,2888,2885,2882,2876,2872,2863,2855,2844,2836,2824,2814,2803,2794,2784,2776,2767,2760,2752,2747,2740,2734,2727,2720,2713,2704,2694,2685,2675,2665,2655,2645,2636,2628,2618,2609,2602,2596,2591,2585,2582,2578,2577,2575,2575,2572,2572,2570,2567,2564,2561,2553,2548,2540,2533,2525,2522,2518,2520,2524,2535,2546,2573,2617,2640,2669,2695,2721,2742,2763,2777,2791,2798,2806,2809,2813,2816,2816,2815,2811,2809,2802,2798,2788,2783,2772,2765,2756,2749,2741,2738,2732,2722,2718,2708,2700,2694,2686,2682,2672,2664,2655,2647,2638,2631,2619,2612,2602,2594,2583,2576,2567,2561,2552,2546,2538,2532,2525,2519,2516,2512,2509,2507,2502,2502,2500,2500,2503,2509,2517,2531,2549,2570,2597,2620,2670,2719,2743,2770,2791,2809,2820,2830,2836,2840,2842,2843,2841,2837,2834,2829,2826,2820,2816,2809,2804,2798,2793,2788,2786,2783,2781,2777,2778,2773,2770,2764,2761,2754,2749,2742,2736,2726,2709,2693,2687,2677,2669,2658,2650,2634,2625,2621,2613,2608,2601,2598,2593,2592,2587,2586,2586,2592,2597,2609,2623,2639,2678,2699,2723,2742,2763,2777,2792,2801,2810,2813,2816,2817,2819,2816,2814,2810,2807,2800,2794,2782,2770,2764,2751,2740,2737,2731,2728,2724,2723,2718,2715,2711,2707,2700,2693,2686,2674,2653,2638,2628,2617,2607,2598,2583,2566,2553,2541,2536,2530,2526,2522,2520,2518,2520,2521,2525,2529,2537,2546,2560,2575,2593,2614,2637,2658,2683,2706,2730,2750,2768,2782,2796,2806,2813,2816,2819,2819,2820,2820,2818,2816,2811,2806,2800,2795,2786,2773,2767,2760,2755,2748,2744,2739,2736,2732,2729,2722,2718,2712,2705,2698,2690,2682,2675,2660,2646,2640,2636,2627,2622,2621,2618,2616,2613,2613,2605,2599,2598,2593,2587,2581,2576,2570,2566,2561,2559,2558,2560,2563,2571,2582,2595,2610,2624,2653,2675,2689,2704,2716,2726,2736,2743,2749,2756,2762,2768,2775,2781,2786,2793,2794,2796,2796,2795,2793,2789,2787,2783,2778,2773,2768,2762,2757,2750,2743,2735,2730,2722,2716,2710,2705,2693,2688,2681,2678,2672,2668,2665,2659,2656,2651,2646,2638,2633,2626,2620,2613,2607,2598,2593,2583,2578,2567,2559,2555,2552,2553,2563,2573,2588,2604,2625,2642,2684,2706,2720,2736,2746,2754,2759,2764,2765,2767,2768,2769,2768,2765,2764,2759,2754,2747,2741,2732,2725,2717,2711,2704,2697,2695,2694,2692,2690,2688,2686,2684,2681,2672,2664,2658,2645,2634,2628,2622,2617,2609,2604,2603,2601,2600,2599,2599,2594,2592,2591,2589,2589,2588,2595,2607,2616,2630,2644,2660,2675,2692,2706,2725,2747,2757,2760,2763,2763,2762,2761,2759,2757,2753,2751,2748,2745,2742,2741,2740,2739,2737,2737,2736,2736,2734,2731,2727,2721,2716,2709,2702,2695,2687,2682,2668,0,0,1
2713,2713,2711,2712,2708,2709,2708,2709,2707,2704,2699,2696,2690,2687,2680,2675,2668,2663,2655,2650,2645,2642,2638,2637,2633,2632,2629,2630,2627,2628,2625,2627,2625,2628,2629,2634,2638,2646,2655,2666,2676,2689,2699,2708,2717,2723,2728,2731,2730,2729,2727,2725,2720,2717,2713,2711,2709,2708,2705,2706,2705,2705,2705,2706,2706,2707,2707,2708,2707,2707,2706,2703,2702,2700,2697,2695,2691,2688,2686,2683,2681,2679,2678,2676,2674,2670,2670,2668,2668,2666,2666,2665,2668,2671,2679,2688,2697,2706,2719,2728,2738,2748,2756,2760,2763,2761,2759,2754,2750,2743,2739,2733,2729,2723,2719,2716,2716,2713,2714,2712,2715,2712,2715,2714,2715,2714,2713,2710,2709,2705,2703,2698,2696,2691,2688,2684,2681,2677,2678,2674,2674,2670,2671,2668,2669,2666,2667,2665,2666,2663,2664,2665,2669,2673,2680,2687,2699,2709,2724,2733,2745,2754,2761,2765,2770,2769,2768,2762,2759,2751,2747,2740,2737,2731,2728,2722,2720,2717,2717,2714,2715,2713,2713,2711,2713,2711,2713,2710,2709,2707,2705,2699,2697,2692,2689,2684,2681,2676,2675,2673,2670,2667,2667,2664,2663,2661,2660,2659,2658,2656,2655,2655,2657,2659,2667,2674,2684,2695,2707,2719,2732,2743,2753,2761,2766,2768,2768,2765,2760,2755,2749,2743,2737,2732,2727,2725,2721,2719,2717,2715,2714,2714,2713,2713,2713,2714,2712,2710,2708,2708,2706,2705,2700,2698,2693,2690,2685,2683,2678,2676,2671,2668,2666,2664,2661,2661,2658,2659,2657,2657,2655,2656,2654,2656,2656,2660,2665,2675,2683,2695,2706,2722,2734,2748,2759,2769,2775,2781,2780,2780,2775,2772,2764,2759,2752,2748,2742,2738,2734,2733,2729,2729,2726,2727,2726,2728,2726,2728,2725,2725,2722,2722,2716,2715,2709,2705,2698,2695,2690,2688,2683,2682,2678,2677,2673,2673,2671,2670,2667,2667,2663,2663,2660,2659,2656,2656,2654,2657,2659,2667,2674,2685,2696,2709,2721,2736,2747,2759,2767,2774,2777,2778,2776,2774,2768,2764,2757,2752,2747,2743,2739,2735,2732,2729,2727,2726,2724,2724,2722,2722,2720,2719,2717,2716,2714,2710,2707,2704,2701,2696,2692,2688,2684,2680,2676,2673,2670,2668,2666,2662,2662,2661,2660,2658,2658,2655,2654,2652,2651,2651,2653,2655,2661,2667,2678,2689,2704,2716,2731,2742,2755,2763,2771,2775,2778,2775,2774,2769,2766,2759,2756,2751,2749,2743,2740,2736,2736,2732,2733,2730,2732,2729,2730,2727,2727,2724,2724,2720,2718,2712,2709,2703,2700,2694,2691,2685,2682,2676,2673,2668,2667,2663,2662,2658,2658,2654,2654,2651,2650,2646,2647,2643,2642,2638,2638,2637,2641,2647,2657,2668,2682,2693,2709,2722,2738,2750,2762,2768,2773,2774,2776,2771,2769,2764,2761,2756,2752,2746,2744,2739,2737,2734,2733,2731,2729,2728,2727,2726,2726,2723,2722,2719,2716,2712,2709,2705,2699,2693,2688,2681,2677,2672,2668,2664,2661,2657,2653,2649,2647,2645,2643,2641,2639,2636,2634,2631,2630,2627,2625,2624,2623,2626,2633,2640,2649,2661,2675,2691,2707,2723,2738,2752,2762,2769,2772,2775,2774,2771,2768,2765,2760,2757,2752,2750,2745,2743,2740,2738,2736,2736,2733,2734,2730,2731,2729,2728,2726,2724,2720,2716,2709,2704,2697,2692,2684,2679,2670,2667,2661,2658,2652,2649,2644,2642,2637,2636,2631,2631,2627,2625,2621,2619,2615,2614,2611,2613,2614,2620,2626,2637,2647,2663,2677,2694,2709,2728,2741,2752,2759,2767,2767,2770,2768,2768,2763,2762,2756,2753,2748,2746,2742,2741,2738,2736,2733,2732,2728,2729,2726,2726,2723,2721,2717,2715,2710,2706,2700,2696,2689,2683,2676,2670,2662,2657,2651,2647,2641,2638,2634,2631,2626,2625,2620,2619,2617,2614,2611,2608,2603,2600,2597,2599,2599,2603,2610,2620,2631,2646,2661,2679,2697,2716,2731,2743,2753,2761,2766,2768,2767,2766,2765,2761,2758,2754,2751,2749,2746,2744,2743,2741,2740,2739,2739,2736,2736,2734,2733,2730,2726,2722,2718,2712,2708,2700,2695,2688,2681,2675,2670,2663,2659,2652,2648,2642,2638,2633,2630,2626,2623,2618,2616,2612,2609,2605,2605,2602,2600,2596,2596,2595,2598,2602,2612,2622,2637,2649,2666,2682,2700,2716,2733,2745,2757,2762,2766,2766,2768,2767,2767,2763,2762,2758,2757,2752,2753,2750,2750,2746,2745,2742,2743,2740,2742,2738,2738,2733,2731,2728,2724,2717,2712,2704,2699,2690,2685,2678,2673,2665,2660,2653,2650,2644,2640,2635,2633,2630,2628,2624,2622,2618,2616,2612,2610,2606,2604,2600,2600,2601,2608,2614,2627,2640,2656,2674,2694,2712,2731,2746,2759,2768,2776,2779,2781,2781,2780,2778,2775,2771,2770,2769,2768,2766,2765,2762,2761,2760,2757,2755,2753,2750,2746,2743,2739,2736,2730,2725,2718,2713,2706,2700,2693,2686,2679,2672,2665,2660,2653,2649,2644,2640,2635,2631,2626,2624,2619,2615,2610,2606,2600,2596,2591,2586,2579,2577,2573,2573,2575,2582,2592,2604,2618,2636,2654,2675,2693,2712,2727,2740,2750,2757,2762,2764,2764,2765,2762,2762,2760,2759,2757,2756,2753,2752,2749,2747,2743,2741,2738,2736,2732,2731,2726,2723,2717,2715,2708,2703,2695,2689,2681,2674,2664,2658,2650,2644,2635,2629,2623,2618,2613,2609,2604,2602,2597,2595,2592,2589,2586,2583,2579,2576,2571,2567,2562,2560,2558,2559,2560,2567,2575,2590,2605,2624,2643,2664,2683,2701,2718,2733,2745,2754,2758,2761,2763,2764,2763,2763,2762,2761,2758,2756,2756,2755,2754,2752,2750,2748,2746,2744,2742,2740,2737,2734,2729,2724,2718,2711,2704,2695,2689,2681,2673,2666,2659,2651,2645,2639,2634,2628,2624,2617,2612,2608,2604,2600,2598,2594,2590,2586,2582,2577,2575,2570,2568,2563,2561,2559,2562,2565,2575,2586,2601,2617,2636,2654,2676,2695,2715,2729,2744,2754,2762,2765,2769,2771,2772,2772,2771,2769,2770,2767,2768,2765,2765,2763,2762,2758,2758,2755,2754,2750,2748,2742,2738,2732,2728,2720,2715,2705,2697,2689,2683,2674,2669,2661,2656,2648,2643,2637,2632,2628,2625,2619,2617,2611,2609,2604,2601,2597,2594,2590,2585,2581,2579,2574,2574,2570,2572,2575,2582,2592,2607,2622,2641,2660,2681,2700,2721,2738,2754,2766,2776,2781,2787,2788,2791,2790,2792,2789,2789,2788,2785,2783,2782,2778,2775,2771,2768,2764,2762,2758,2755,2752,2746,2741,2736,2730,2723,2717,2710,2702,2693,2685,2677,2669,2663,2656,2649,2643,2638,2632,2627,2622,2619,2615,2611,2607,2603,2599,2596,2593,2590,2587,2582,2577,2573,2571,2568,2566,2564,2566,2572,2581,2593,2610,2628,2648,2671,2695,2719,2741,2759,2776,2786,2795,2800,2803,2805,2805,2804,2801,2800,2799,2797,2794,2791,2790,2787,2785,2782,2781,2777,2774,2768,2765,2760,2757,2752,2746,2739,2730,2721,2713,2705,2697,2687,2680,2669,2663,2654,2648,2643,2636,2630,2626,2620,2617,2612,2610,2605,2602,2597,2594,2591,2588,2582,2580,2576,2573,2569,2565,2562,2563,2565,2572,2582,2598,2615,2634,2656,2681,2704,2730,2751,2771,2784,2796,2803,2809,2811,2812,2810,2808,2806,2805,2803,2800,2797,2795,2791,2789,2785,2784,2781,2777,2773,2771,2767,2763,2758,2752,2746,2739,2731,2723,2715,2705,2695,2687,2677,2669,2662,2655,2648,2643,2636,2632,2626,2622,2619,2615,2612,2608,2605,2602,2598,2595,2591,2588,2584,2579,2575,2571,2567,2564,2565,2571,2581,2595,2612,2631,2654,2678,2704,2729,2752,2773,2792,2804,2814,2820,2824,2825,2825,2823,2822,2820,2817,2813,2810,2807,2804,2800,2798,2795,2792,2788,2784,2781,2778,2775,2771,2764,2758,2750,2743,2734,2725,2715,2706,2696,2687,2676,2670,2661,2652,2644,2638,2632,2627,2622,2618,2614,2611,2605,2602,2599,2596,2592,2589,2584,2579,2574,2569,2565,2560,2558,2558,2561,2568,2580,2596,2615,2637,2662,2689,2716,2742,2765,2787,2803,2816,2824,2831,2832,2834,2832,2831,2828,2825,2822,2819,2816,2813,2809,2807,2804,2801,2797,2793,2789,2785,2781,2775,2771,2765,2758,2750,2741,2731,2721,2711,2702,2691,2682,2673,2664,2655,2648,2641,2634,2628,2623,2618,2613,2609,2604,2601,2597,2594,2589,2585,2582,2577,2573,2568,2563,2559,2555,2554,2556,2564,2575,2590,2609,2632,2657,2684,2712,2739,2764,2786,2803,2817,2826,2832,2835,2836,2836,2833,2831,2828,2826,2823,2819,2816,2813,2810,2805,2802,2798,2795,2791,2786,2781,2776,2771,2764,2757,2748,2738,2729,2718,2708,2698,2688,2678,2667,2657,2649,2641,2633,2626,2621,2615,2610,2606,2601,2597,2593,2590,2587,2583,2579,2574,2571,2565,2561,2557,2554,2550,2549,2552,2560,2571,2588,2605,2627,2651,2678,2705,2733,2756,2777,2794,2807,2815,2822,2824,2826,2825,2825,2822,2821,2817,2814,2810,2808,2804,2801,2797,2793,2788,2785,2778,2773,2767,2762,2756,2750,2743,2733,2723,2714,2703,2694,2685,2676,2664,2655,2646,2638,2631,2625,2620,2615,2608,2602,2598,2595,2591,2586,2582,2578,2574,2570,2565,2561,2557,2553,2550,2550,2552,2559,2571,2586,2605,2626,2650,2674,2700,2726,2749,2770,2786,2798,2807,2812,2815,2815,2816,2814,2812,2808,2806,2802,2797,2793,2791,2787,2784,2779,2776,2774,2772,2768,2765,2761,2758,2751,2745,2737,2729,2719,2711,2700,2690,2680,2672,2662,2654,2645,2640,2632,2628,2622,2618,2610,2608,2602,2598,2593,2590,2586,2588,2590,2596,2604,2619,2633,2653,2674,2697,2718,2744,2762,2780,2794,2805,2811,2817,2818,2819,2817,2816,2812,2811,2806,2804,2799,2795,2790,2786,2781,2778,2772,2769,2763,2760,2753,2749,2742,2735,2727,2719,2708,2698,2687,2677,2664,2655,2645,2636,2627,2621,2614,2609,2603,2599,2594,2590,2585,2581,2576,2573,2568,2564,2559,2555,2553,2554,2558,2567,2579,2595,2616,2639,2665,2693,2722,2749,2774,2796,2814,2828,2838,2845,2849,2852,2853,2852,2852,2851,2850,2848,2845,2843,2839,2835,2829,2821,2815,2807,2801,2793,2786,2778,2771,2760,2751,2742,2734,2722,2711,2700,2689,2677,2667,2655,2647,2638,2629,2619,2613,2606,2603,2596,2592,2585,2582,2575,2572,2567,2562,2555,2552,2545,2542,2540,2543,2548,2559,2572,2591,2610,2637,2662,2691,2719,2746,2769,2790,2804,2817,2826,2834,2836,2840,2838,2839,2837,2839,2835,2833,2829,2826,2819,2815,2807,2802,2792,2785,2776,2770,2762,2756,2747,2739,2728,2719,2709,2699,2687,2677,2665,2655,2643,2635,2624,2617,2607,2600,2593,2588,2581,2577,2571,2566,2560,2557,2552,2547,2542,2538,2531,2526,2520,2518,2515,2518,2523,2536,2551,2571,2593,2620,2647,2678,2707,2734,2759,2778,2792,2804,2812,2817,2821,2824,2823,2823,2822,2819,2817,2813,2809,2804,2797,2791,2782,2774,2766,2759,2752,2745,2738,2731,2724,2715,2707,2697,2690,2679,2668,2656,2646,2635,2625,2615,2608,2599,2593,2585,2580,2574,2571,2566,2563,2558,2555,2550,2546,2540,2535,2529,2524,2517,2514,2509,2512,2515,2525,2538,2559,2579,2607,2633,2663,2692,2722,2746,2770,2785,2801,2808,2816,2818,2822,2821,2821,2818,2817,2813,2812,2807,2805,2800,2799,2792,2788,2781,2779,2771,2767,2760,2756,2747,2741,2730,2724,2712,2705,2693,2685,2673,2664,2653,2646,2636,2630,2622,2617,2609,2604,2597,2594,2588,2584,2578,2575,2568,2567,2565,2570,2575,2587,2601,2619,2640,2665,2690,2719,2744,2770,2789,2807,2820,2829,2835,2839,2839,2838,2834,2831,2827,2823,2817,2813,2808,2803,2796,2791,2785,2781,2775,2769,2763,2758,2752,2743,2734,2725,2715,2704,2693,2681,2669,2657,2645,2634,2624,2614,2606,2598,2591,2584,2579,2574,2569,2564,2560,2555,2551,2545,2540,2533,2529,2523,2522,2522,2528,2538,2555,2573,2597,2625,2656,2687,2722,2753,2783,2807,2827,2843,2856,2863,2870,2872,2875,2873,2874,2872,2870,2865,2863,2855,2851,2841,2835,2825,2819,2808,2801,2791,2783,2772,2765,2755,2747,2735,2724,2710,2699,2685,2675,2661,2650,2636,2626,2614,2606,2596,2591,2582,2577,2569,2566,2559,2556,2549,2546,2540,2536,2529,2524,2516,2512,2507,2508,2510,2520,2531,2551,2573,2601,2630,2665,2698,2733,2762,2791,2813,2832,2842,2851,2857,2861,2859,2860,2857,2855,2851,2849,2843,2839,2833,2828,2819,2812,2803,2795,2785,2776,2766,2759,2749,2739,2728,2717,2704,2692,2680,2667,2652,2640,2627,2614,2602,2591,2580,2571,2563,2555,2548,2542,2536,2530,2526,2522,2516,2511,2506,2500,2495,2488,2484,2480,2479,2483,2493,2506,2527,2553,2582,2614,2650,2684,2719,2750,2777,2798,2816,2826,2834,2836,2838,2836,2835,2832,2828,2823,2818,2812,2808,2801,2796,2789,2784,2777,2772,2765,2759,2751,2745,2736,2730,2719,2710,2696,2685,2669,2658,2642,2630,2616,2604,2592,2584,2574,2568,2559,2555,2549,2546,2540,2538,2532,2529,2522,2520,2513,2513,2511,2516,2523,2538,2555,2579,2604,2636,2665,2699,2729,2760,2785,2806,2820,2833,2838,2842,2841,2840,2834,2828,2820,2815,2806,2801,2792,2787,2780,2777,2772,2769,2766,2763,2756,2754,2747,2742,2733,2725,2712,2701,2687,2675,2660,2648,2634,2623,2611,2601,2590,2581,2573,2568,2561,2556,2551,2547,2540,2535,2531,2530,2530,2535,2543,2558,2577,2601,2629,2660,2692,2726,2760,2791,2818,2839,2856,2868,2875,2878,2878,2877,2873,2869,2864,2856,2849,2843,2835,2827,2821,2814,2808,2799,2791,2783,2777,2768,2761,2751,2741,2729,2718,2705,2694,2679,2666,2651,2640,2626,2615,2603,2594,2583,2576,2566,2561,2553,2550,2543,2539,2532,2529,2522,2518,2511,2509,2507,2511,2516,2531,2548,2574,2601,2635,2667,2704,2736,2772,2801,2828,2846,2862,2871,2878,2879,2880,2878,2880,2874,2872,2866,2862,2856,2851,2843,2838,2830,2826,2815,2809,2799,2790,2781,2774,2763,2755,2742,2731,2716,2705,2690,2679,2665,2653,2637,2628,2613,2604,2592,2586,2576,2569,2561,2555,2549,2545,2539,2535,2529,2523,2514,2507,2501,2497,2494,2499,2506,2519,2536,2560,2586,2619,2652,2687,2722,2754,2781,2803,2820,2833,2841,2847,2847,2849,2846,2843,2839,2834,2830,2825,2820,2815,2810,2803,2795,2789,2782,2776,2770,2761,2754,2745,2736,2727,2717,2705,2694,2682,2671,2657,2645,2634,2623,2611,2602,2593,2584,2574,2567,2560,2555,2548,2543,2536,2532,2525,2520,2515,2510,2504,2501,2499,2503,2509,2523,2539,2564,2587,2617,2647,2681,2712,2746,2771,2794,2808,2822,2828,2833,2832,2833,2829,2825,2820,2815,2809,2804,2796,2789,2781,2777,2769,2764,2755,2749,2741,2735,2728,2722,2713,2705,2693,2684,2671,2661,2646,2635,2621,2610,2598,2589,2578,2569,2560,2555,2546,2542,2535,2532,2525,2521,2514,2511,2505,2501,2493,2489,2482,2482,2482,2490,2502,2520,2541,2567,2595,2631,2663,2699,2730,2760,2782,2802,2815,2825,2830,2831,2827,2827,2821,2815,2809,2804,2797,2792,2785,2781,2777,2774,2769,2766,2763,2760,2757,2754,2748,2743,2736,2727,2717,2706,2695,2683,2671,2658,2646,2636,2625,2615,2608,2600,2594,2587,2582,2577,2573,2568,2564,2559,2556,2553,2554,2556,2565,2576,2594,2613,2637,2663,2692,2720,2749,2773,2797,2812,2825,2832,2837,2837,2834,2828,2823,2814,2807,2797,2791,2783,2778,2770,2767,2762,2760,2754,2752,2749,2747,2743,2738,2730,2723,2712,2702,2689,2678,2663,2651,2635,2624,2612,2603,2592,2583,2573,2568,2560,2557,2551,2548,2543,2538,2531,2528,2523,2522,2520,2526,2533,2547,2564,2590,2616,2650,2681,2717,2751,2784,2811,2836,2853,2866,2874,2880,2879,2880,2877,2874,2869,2865,2858,2853,2846,2840,2833,2828,2820,2814,2806,2801,2793,2788,2780,2773,2763,2753,2742,2732,2721,2709,2694,2681,2669,2657,2644,2635,2625,2616,2607,2599,2591,2586,2580,2575,2570,2565,2559,2554,2548,2543,2537,2534,2532,2535,2543,2555,2572,2594,2621,2650,2684,2717,2751,2783,2811,2834,2854,2866,2876,2881,2885,2884,2883,2879,2875,2868,2864,2857,2852,2846,2838,2829,2821,2813,2806,2797,2789,2780,2773,2762,2753,2743,2733,2720,2708,2693,2681,2667,2655,2641,2629,2616,2607,2597,2589,2580,2574,2567,2561,2555,2551,2546,2543,2537,2533,2526,2521,2515,2511,2506,2504,2503,2510,2519,2535,2555,2582,2610,2644,2677,2713,2744,2776,2800,2822,2837,2849,2854,2859,2858,2858,2853,2850,2845,2840,2834,2829,2821,2815,2807,2802,2794,2787,2778,2771,2762,2754,2744,2735,2726,2716,2702,2690,2678,2666,2651,2640,2626,2615,2603,2593,2583,2575,2566,2559,2554,2548,2543,2538,2534,2530,2526,2522,2518,2514,2508,2504,2498,2494,2489,2486,2486,2490,2499,2514,2535,2560,2589,2622,2657,2693,2728,2762,2789,2813,2830,2842,2850,2855,2857,2856,2853,2849,2843,2837,2833,2826,2821,2814,2807,2801,2794,2785,2778,2771,2764,2756,2750,2742,2733,2723,2712,2700,2690,2677,2665,2651,2639,2625,2614,2603,2594,2584,2578,2572,2566,2562,2559,2555,2553,2550,2546,2542,2539,2533,2530,2524,2519,2513,2514,2514,2524,2535,2553,2573,2601,2630,2664,2697,2733,2764,2794,2817,2835,2849,2858,2862,2863,2860,2857,2851,4,4,0
2537,2530,2525,2520,2516,2511,2503,2497,2493,2493,2492,2494,2498,2504,2515,2530,2549,2568,2593,2618,2644,2672,2699,2726,2751,2774,2791,2813,2828,2831,2833,2834,2830,2826,2818,2813,2809,2804,2799,2791,2786,2785,2780,2777,2774,2771,2769,2765,2763,2761,2759,2756,2753,2747,2736,2732,2726,2717,2710,2703,2696,2686,2671,2664,2651,2645,2641,2633,2627,2624,2619,2616,2611,2609,2605,2603,2610,2625,2638,2652,2671,2692,2714,2738,2762,2787,2808,2829,2844,2858,2868,2876,2881,2884,2886,2881,2876,2865,2860,2852,2842,2837,2832,2826,2821,2815,2812,2806,2799,2794,2785,2780,2772,2764,2754,2745,2736,2725,2715,2702,2693,2681,2671,2661,2649,2639,2628,2619,2606,2599,2584,2570,2564,2557,2551,2546,2533,2527,2527,2526,2531,2549,2564,2580,2604,2627,2654,2683,2712,2742,2769,2797,2819,2839,2854,2866,2875,2879,2883,2883,2881,2873,2866,2858,2846,2839,2835,2827,2821,2813,2804,2799,2789,2777,2771,2757,2738,2725,2717,2707,2696,2685,2673,2663,2650,2640,2629,2618,2609,2598,2589,2579,2570,2562,2555,2548,2542,2536,2528,2523,2514,2505,2501,2502,2506,2515,2528,2543,2564,2584,2624,2687,2749,2800,2821,2838,2851,2866,2873,2872,2873,2868,2859,2854,2847,2840,2832,2817,2803,2796,2789,2781,2774,2768,2755,2742,2736,2727,2720,2710,2700,2693,2676,2657,2650,2638,2616,2605,2596,2578,2564,2556,2546,2540,2530,2524,2518,2512,2507,2502,2498,2492,2483,2476,2476,2480,2498,2525,2541,2569,2630,2662,2717,2766,2788,2812,2832,2848,2861,2869,2873,2876,2874,2869,2865,2859,2846,2832,2825,2819,2812,2806,2797,2784,2778,2776,2766,2755,2746,2728,2709,2700,2678,2663,2654,2645,2628,2609,2601,2591,2583,2574,2568,2561,2553,2547,2540,2535,2525,2519,2522,2531,2543,2555,2575,2596,2622,2648,2679,2709,2740,2772,2797,2822,2841,2856,2876,2887,2885,2884,2881,2874,2868,2859,2852,2842,2828,2818,2803,2788,2782,2776,2771,2766,2760,2755,2747,2741,2733,2723,2715,2699,2681,2673,2660,2637,2624,2615,2599,2578,2562,2556,2547,2539,2531,2525,2519,2515,2519,2526,2536,2573,2599,2645,2717,2765,2796,2847,2867,2880,2890,2895,2898,2900,2895,2884,2877,2861,2846,2830,2820,2814,2804,2796,2787,2782,2768,2754,2746,2736,2726,2717,2695,2672,2657,2647,2636,2625,2616,2602,2593,2575,2561,2553,2544,2535,2527,2510,2497,2491,2488,2483,2484,2496,2507,2523,2569,2626,2695,2742,2769,2799,2824,2844,2872,2884,2889,2890,2887,2885,2879,2876,2869,2855,2847,2840,2833,2824,2806,2789,2778,2772,2758,2737,2722,2708,2686,2675,2661,2650,2637,2625,2612,2599,2587,2563,2550,2541,2533,2517,2502,2496,2488,2483,2475,2471,2467,2458,2451,2448,2443,2440,2436,2437,2440,2460,2487,2509,2537,2567,2635,2715,2765,2794,2824,2849,2868,2893,2902,2905,2901,2892,2887,2881,2865,2857,2850,2843,2829,2818,2810,2792,2783,2777,2761,2750,2735,2710,2691,2678,2653,2637,2612,2596,2585,2564,2544,2535,2516,2506,2490,2481,2475,2465,2458,2454,2448,2444,2438,2435,2432,2425,2417,2416,2425,2437,2450,2473,2493,2533,2610,2681,2719,2755,2788,2839,2874,2885,2897,2902,2906,2904,2895,2880,2867,2860,2850,2834,2826,2814,2808,2803,2796,2790,2784,2779,2771,2766,2759,2744,2720,2702,2691,2665,2652,2641,2627,2616,2598,2578,2567,2548,2542,2532,2526,2517,2505,2496,2485,2480,2476,2472,2470,2467,2466,2476,2496,2512,2535,2594,2631,2689,2772,2840,2895,2930,2944,2949,2954,2953,2944,2937,2929,2910,2891,2879,2871,2861,2852,2844,2829,2822,2818,2805,2795,2783,2762,2745,2733,2709,2694,2683,2660,2631,2610,2599,2587,2564,2551,2545,2530,2516,2511,2502,2489,2482,2473,2468,2464,2463,2468,2473,2489,2531,2556,2620,2674,2712,2751,2801,2875,2904,2927,2961,2977,2980,2982,2979,2972,2966,2956,2947,2938,2920,2903,2894,2875,2865,2856,2846,2839,2828,2813,2806,2796,2774,2760,2749,2736,2722,2711,2692,2662,2649,2634,2622,2608,2593,2583,2568,2546,2525,2516,2504,2495,2487,2477,2472,2465,2462,2455,2451,2452,2455,2459,2476,2518,2547,2580,2618,2658,2700,2743,2787,2825,2863,2894,2937,2968,2979,2989,2986,2977,2972,2965,2945,2930,2917,2891,2871,2858,2849,2837,2827,2818,2809,2800,2788,2768,2759,2739,2711,2690,2677,2662,2647,2634,2603,2582,2572,2550,2524,2513,2502,2490,2474,2457,2449,2443,2434,2429,2426,2418,2412,2410,2413,2419,2429,2447,2467,2493,2562,2611,2652,2693,2752,2834,2870,2926,2949,2967,2979,2976,2971,2961,2942,2934,2924,2904,2890,2882,2872,2863,2843,2833,2827,2813,2792,2775,2764,2755,2742,2716,2700,2687,2672,2658,2638,2608,2577,2547,2535,2515,2497,2485,2468,2462,2455,2451,2444,2433,2424,2421,2418,2413,2410,2406,2405,2411,2418,2443,2489,2521,2558,2603,2640,2725,2796,2848,2919,2942,2966,2980,2994,2999,2997,2990,2978,2970,2958,2949,2938,2919,2895,2878,2870,2858,2849,2837,2830,2814,2796,2788,2778,2762,2736,2721,2710,2683,2658,2646,2628,2613,2597,2585,2570,2557,2539,2517,2506,2497,2485,2478,2471,2457,2445,2441,2432,2426,2416,2409,2406,2410,2420,2433,2449,2473,2539,2581,2660,2726,2786,2868,2898,2926,2950,2967,2981,2988,2982,2972,2960,2940,2929,2919,2898,2882,2875,2860,2841,2834,2824,2816,2809,2797,2776,2757,2748,2736,2725,2714,2687,2665,2652,2637,2623,2595,2578,2569,2548,2530,2519,2503,2498,2490,2478,2473,2469,2461,2455,2457,2465,2475,2494,2512,2556,2635,2707,2746,2789,2868,2907,2928,2950,2969,2981,2977,2967,2948,2936,2926,2905,2877,2857,2849,2836,2826,2816,2801,2783,2770,2762,2751,2742,2731,2708,2691,2678,2665,2646,2618,2604,2574,2560,2548,2535,2525,2514,2505,2494,2488,2474,2465,2462,2457,2451,2449,2455,2481,2501,2546,2626,2694,2734,2778,2822,2859,2895,2922,2952,2979,2983,2985,2984,2979,2971,2961,2950,2941,2923,2898,2884,2872,2848,2831,2821,2808,2798,2786,2766,2756,2746,2737,2719,2697,2682,2655,2642,2615,2583,2566,2547,2526,2517,2505,2496,2478,2468,2457,2448,2444,2436,2434,2431,2433,2437,2467,2498,2534,2606,2646,2689,2732,2807,2883,2935,2963,2967,2971,2969,2963,2945,2932,2919,2896,2885,2875,2850,2834,2824,2812,2801,2791,2779,2770,2757,2748,2737,2726,2715,2703,2691,2664,2647,2635,2612,2579,2554,2540,2527,2513,2503,2490,2479,2470,2462,2456,2441,2437,2427,2423,2419,2413,2408,2415,2438,2460,2486,2512,2583,2646,2703,2793,2833,2904,2953,2968,2975,2980,2977,2970,2963,2953,2944,2932,2922,2904,2881,2867,2839,2828,2816,2804,2793,2782,2772,2761,2751,2740,2730,2710,2691,2679,2665,2650,2636,2607,2590,2563,2544,2528,2504,2493,2473,2464,2451,2440,2435,2429,2421,2416,2413,2407,2405,2401,2398,2395,2399,2414,2430,2482,2520,2557,2599,2644,2692,2737,2783,2823,2856,2904,2936,2943,2951,2949,2944,2928,2906,2894,2883,2870,2861,2848,2839,2828,2808,2785,2772,2761,2741,2731,2722,2710,2700,2688,2676,2660,2630,2604,2588,2576,2561,2548,2536,2524,2514,2502,2484,2469,2463,2458,2454,2450,2441,2437,2436,2430,2428,2424,2422,2424,2427,2436,2449,2465,2516,2555,2609,2684,2726,2805,2840,2867,2886,2906,2923,2922,2920,2915,2906,2900,2884,2859,2841,2831,2822,2802,2793,2786,2780,2768,2758,2754,2742,2727,2716,2708,2698,2689,2675,2653,2639,2629,2615,2604,2592,2581,2571,2560,2552,2541,2534,2527,2521,2514,2508,2504,2498,2496,2493,2495,2511,2531,2549,2575,2603,2637,2671,2710,2751,2784,2831,2888,2908,2926,2938,2945,2947,2944,2932,2916,2908,2896,2887,2876,2866,2855,2846,2838,2820,2811,2806,2799,2794,2788,2779,2773,2756,2744,2737,2726,2716,2705,2690,2679,2666,2641,2629,2618,2608,2595,2575,2566,2559,2551,2546,2537,2527,2523,2521,2518,2523,2532,2544,2557,2597,2645,2673,2710,2743,2780,2814,2848,2879,2904,2927,2941,2953,2957,2961,2961,2960,2953,2938,2929,2921,2898,2883,2861,2838,2826,2812,2796,2769,2738,2719,2709,2688,2661,2645,2629,2610,2591,2573,2538,2505,2486,2463,2443,2420,2401,2383,2366,2352,2332,2311,2304,2293,2288,2289,2288,2289,2295,2304,2309,2320,2330,2362,2398,2423,2455,2491,2526,2568,2602,2674,2737,2762,2799,2847,2864,2876,2888,2895,2900,2902,2902,2904,2902,2901,2896,2894,2889,2882,2876,2866,2862,2854,2847,2838,2829,2821,2813,2805,2789,2770,2756,2748,2732,2711,2701,2691,2667,2653,2644,2632,2621,2614,2601,2582,2576,2561,2546,2536,2531,2524,2517,2514,2506,2493,2486,2480,2474,2471,2467,2470,2479,2489,2506,2524,2545,2571,2594,2624,2681,2708,2740,2766,2773,2779,2784,2783,2775,2768,2766,2759,2750,2745,2742,2737,2735,2732,2730,2729,2724,2722,2721,2718,2718,2716,2714,2713,2710,2708,2705,2702,2695,2686,2679,2674,2669,2663,2657,2650,2645,2638,2634,2628,2621,2617,2610,2601,2597,2592,2588,2584,2580,2577,2572,2570,2566,2559,2557,2559,2563,2572,2582,2597,2613,2633,2652,2672,2695,2716,2740,2757,2773,2787,2799,2805,2808,2812,2812,2814,2812,2811,2808,2804,2802,2798,2791,2789,2785,2782,2778,2776,2774,2768,2766,2765,2759,2756,2752,2747,2741,2735,2728,2718,2712,2703,2694,2686,2678,2673,2666,2663,2658,2656,2655,2655,2657,2657,2661,2663,2667,2669,2672,2673,2672,2673,2671,2670,2667,2665,2662,2660,2660,2659,2666,2669,2688,2704,2725,2749,2760,2773,2780,2789,2792,2788,2783,2776,2765,2757,2746,2738,2722,2709,2704,2700,2695,2694,2690,2691,2691,2690,2691,2693,2693,2693,2689,2689,2685,2681,2676,2670,2665,2658,2652,2644,2637,2632,2621,2610,2607,2600,2597,2591,2586,2582,2573,2563,2558,2550,2545,2537,2531,2524,2518,2512,2507,2502,2491,2484,2477,2473,2474,2477,2485,2494,2523,2546,2566,2591,2616,2640,2667,2690,2714,2732,2749,2761,2774,2790,2794,2798,2802,2805,2809,2812,2814,2818,2820,2826,2828,2830,2832,2833,2834,2835,2836,2835,2836,2833,2831,2828,2824,2820,2816,2812,2805,2799,2792,2784,2777,2769,2762,2753,2738,2727,2719,2712,2706,2696,2682,2676,2669,2665,2659,2653,2648,2643,2641,2636,2632,2628,2625,2623,2620,2617,2611,2609,2606,2605,2607,2610,2618,2627,2642,2656,2675,2689,2723,2762,2780,2798,2816,2826,2841,2848,2847,2848,2847,2843,2841,2834,2829,2828,2825,2821,2818,2814,2813,2810,2808,2805,2802,2801,2799,2799,2794,2793,2789,2787,2784,2778,2774,2767,2763,2757,2750,2742,2735,2729,2721,2715,2706,2699,2692,2685,2676,2667,2661,2653,2648,2639,2633,2627,2621,2616,2611,2608,2603,2601,2597,2595,2596,2607,2628,2641,2660,2679,2700,2723,2745,2767,2787,2808,2822,2836,2845,2852,2855,2855,2856,2851,2849,2845,2842,2838,2834,2829,2822,2818,2816,2813,2812,2810,2805,2801,2799,2792,2787,2784,2779,2773,2767,2760,2754,2745,2739,2731,2724,2716,2708,2701,2691,2683,2676,2660,2652,2645,2632,2626,2623,2615,2613,2608,2606,2601,2596,2593,2588,2585,2580,2578,2575,2575,2578,2582,2590,2601,2617,2634,2654,2676,2698,2723,2745,2769,2789,2808,2823,2835,2845,2848,2853,2854,2856,2855,2854,2851,2849,2849,2844,2842,2839,2838,2836,2833,2831,2826,2825,2821,2818,2812,2809,2806,2802,2798,2791,2787,2780,2775,2767,2758,2750,2740,2732,2721,2713,2702,2693,2685,2675,2667,2655,2648,2640,2632,2624,2617,2611,2604,2599,2591,2585,2578,2573,2569,2563,2559,2554,2551,2546,2545,2545,2548,2556,2566,2583,2598,2618,2639,2663,2690,2713,2742,2787,2805,2818,2828,2835,2842,2843,2839,2838,2832,2829,2825,2821,2818,2812,2809,2803,2801,2797,2795,2792,2789,2788,2783,2781,2776,2773,2769,2765,2760,2752,2748,2739,2732,2723,2715,2706,2697,2690,2680,2673,2663,2655,2647,2638,2632,2622,2615,2605,2599,2591,2584,2578,2571,2566,2558,2554,2548,2545,2542,2539,2539,2539,2546,2552,2564,2579,2597,2617,2638,2662,2685,2713,2739,2763,2785,2803,2819,2830,2840,2846,2851,2852,2851,2850,2845,2843,2835,2832,2826,2820,2814,2807,2803,2798,2793,2788,2784,2780,2776,2773,2769,2767,2762,2758,2753,2747,2739,2732,2724,2715,2708,2697,2688,2678,2667,2658,2646,2637,2626,2618,2608,2600,2592,2582,2575,2565,2560,2551,2546,2541,2537,2538,2540,2547,2556,2571,2588,2609,2632,2656,2684,2709,2739,2763,2787,2808,2825,2840,2850,2859,2863,2868,2869,2870,2869,2865,2864,2857,2854,2847,2843,2838,2832,2827,2820,2814,2806,2802,2794,2787,2783,2777,2772,2763,2757,2748,2739,2730,2720,2711,2698,2690,2677,2665,2653,2642,2629,2616,2607,2594,2584,2573,2564,2555,2545,2538,2529,2522,2515,2509,2503,2497,2496,2496,2500,2506,2518,2532,2551,2574,2597,2625,2654,2686,2715,2743,2769,2792,2814,2829,2844,2852,2859,2864,2866,2866,2864,2862,2857,2855,2848,2843,2837,2831,2826,2818,2811,2804,2798,2791,2783,2776,2767,2761,2751,2745,2734,2725,2717,2706,2696,2684,2675,2662,2650,2637,2626,2615,2601,2590,2577,2566,2554,2544,2534,2524,2517,2507,2501,2491,2485,2479,2474,2469,2463,2460,2454,2449,2444,2442,2441,2440,2446,2451,2463,2478,2497,2520,2546,2575,2607,2641,2672,2707,2736,2764,2790,2809,2826,2837,2847,2852,2855,2855,2852,2850,2845,2842,2835,2830,2821,2813,2807,2799,2794,2785,2780,2772,2765,2757,2750,2744,2735,2730,2721,2715,2706,2696,2686,2674,2665,2652,2643,2629,2619,2607,2595,2584,2570,2560,2547,2538,2528,2519,2512,2502,2495,2487,2482,2475,2470,2465,2460,2456,2449,2446,2440,2436,2432,2430,2432,2435,2444,2454,2469,2512,2549,2575,2608,2640,2675,2704,2733,2758,2781,2799,2810,2819,2823,2828,2828,2827,2821,2816,2812,2806,2799,2790,2785,2778,2772,2767,2759,2754,2749,2747,2741,2736,2733,2729,2724,2717,2713,2704,2697,2688,2678,2668,2656,2648,2636,2626,2612,2601,2590,2579,2569,2559,2552,2542,2534,2526,2519,2512,2504,2500,2493,2489,2483,2479,2476,2476,2480,2484,2495,2508,2528,2550,2575,2605,2635,2668,2699,2731,2760,2788,2812,2831,2847,2857,2866,2868,2869,2867,2865,2862,2856,2850,2841,2835,2826,2819,2812,2804,2798,2790,2785,2776,2769,2762,2756,2751,2743,2737,2729,2723,2714,2706,2696,2686,2674,2652,2637,2627,2614,2602,2590,2577,2568,2556,2547,2537,2529,2521,2513,2507,2499,2495,2488,2485,2479,2475,2473,2470,2471,2473,2481,2491,2506,2525,2548,2577,2604,2639,2672,2707,2741,2775,2806,2832,2858,2875,2891,2901,2909,2913,2913,2914,2912,2909,2903,2898,2891,2885,2878,2867,2861,2852,2846,2837,2828,2820,2812,2804,2796,2788,2778,2771,2763,2754,2747,2735,2714,2692,2681,2669,2658,2646,2632,2621,2607,2597,2584,2574,2564,2554,2544,2534,2529,2520,2515,2509,2504,2499,2494,2490,2483,2480,2476,2473,2469,2467,2469,2471,2479,2490,2507,2527,2553,2584,2616,2652,2687,2726,2764,2800,2833,2861,2887,2905,2922,2931,2937,2940,2942,2940,2933,2927,2921,2912,2907,2899,2891,2884,2874,2867,2859,2851,2841,2834,2826,2817,2810,2800,2793,2782,2774,2764,2753,2741,2729,2719,2705,2694,2681,2669,2657,2644,2633,2621,2611,2600,2591,2582,2572,2565,2558,2554,2547,2544,2539,2536,2533,2528,2526,2521,2518,2514,2511,2507,2503,2498,2491,2487,2480,2477,2476,2478,2485,2495,2513,2532,2559,2587,2621,2657,2695,2736,2774,2813,2845,2876,2899,2920,2936,2946,2954,2955,2957,2954,2949,2943,2937,2931,2922,2916,2906,2898,2889,2882,2873,2863,2857,2848,2842,2832,2825,2818,2811,2804,2795,2788,2777,2769,2759,2749,2739,2728,2719,2707,2697,2685,2676,2667,2656,2648,2639,2631,2620,2611,2602,2593,2585,2574,2567,2557,2548,2539,2531,2523,2515,2508,2499,2492,2482,2476,2470,2466,2465,2467,2475,2488,2508,2529,2557,2590,2625,2665,2704,2744,2782,2819,2851,2878,2899,2915,2930,2937,2940,2939,2937,2932,2925,2919,2909,2901,2891,2882,2872,2863,2855,2845,2839,2830,2823,2815,2809,2803,2796,2790,2782,2776,2766,2758,2747,2736,2726,2713,2702,2686,2674,2659,2644,2631,2616,2602,2586,2575,2560,2547,2536,2525,2516,2504,2498,2488,2481,2474,2467,2462,2455,2453,2448,2443,2439,2439,2441,2448,2462,2479,2503,2530,2563,2597,2634,2674,2715,2757,2795,2832,2862,2887,2907,2921,2931,2936,2940,2938,2936,2931,2924,2915,2904,2896,2885,2876,2865,2857,2848,2838,2831,2820,2813,2805,2798,2791,2784,2778,2769,2761,2752,2743,2731,2719,2708,2696,2684,2670,2657,2644,2630,2616,2602,2588,2574,2563,2549,2539,2528,2518,2509,2499,2492,2484,2477,2469,2465,2461,2457,2458,2460,2470,2482,2501,2523,2550,2583,2620,2660,2698,2741,2780,2818,2852,2880,2905,2923,2940,2947,2951,2950,2947,2942,2933,2926,2915,2905,2892,2882,2871,2857,2848,2837,2830,2821,2815,2808,2801,2796,2790,2786,4,2,5
2639,2634,2628,2623,2619,2617,2614,2612,2609,2607,2605,2604,2603,2602,2601,2599,2596,2593,2592,2590,2589,2590,2594,2599,2608,2620,2636,2655,2676,2698,2719,2738,2756,2772,2782,2789,2792,2793,2790,2786,2781,2778,2774,2769,2765,2763,2759,2755,2751,2747,2742,2737,2732,2728,2722,2717,2712,2708,2704,2699,2695,2690,2685,2679,2673,2669,2665,2662,2657,2654,2651,2649,2646,2644,2641,2641,2639,2636,2635,2633,2630,2630,2632,2637,2645,2657,2670,2685,2702,2719,2738,2754,2769,2781,2789,2792,2792,2790,2787,2783,2776,2770,2763,2757,2751,2746,2742,2738,2735,2731,2725,2722,2719,2717,2714,2710,2707,2702,2698,2693,2687,2682,2677,2669,2662,2655,2651,2645,2640,2636,2632,2629,2626,2624,2623,2621,2619,2616,2616,2617,2620,2627,2636,2648,2663,2681,2700,2720,2739,2757,2774,2786,2795,2801,2802,2802,2797,2793,2789,2784,2778,2774,2770,2765,2761,2757,2751,2746,2740,2734,2730,2725,2719,2713,2709,2703,2698,2693,2689,2683,2677,2670,2663,2657,2651,2647,2641,2634,2630,2625,2623,2619,2615,2613,2609,2605,2603,2602,2603,2606,2611,2619,2632,2648,2665,2685,2704,2722,2740,2756,2768,2778,2784,2786,2786,2784,2780,2776,2774,2770,2766,2762,2757,2753,2748,2743,2738,2733,2728,2721,2715,2710,2703,2698,2694,2688,2682,2677,2672,2666,2661,2654,2649,2644,2639,2634,2631,2627,2623,2619,2616,2614,2611,2609,2608,2606,2603,2600,2598,2596,2597,2599,2604,2612,2623,2637,2654,2673,2692,2711,2731,2747,2760,2771,2778,2780,2780,2780,2777,2773,2770,2766,2762,2759,2755,2752,2748,2743,2739,2732,2726,2719,2713,2707,2700,2694,2688,2683,2678,2672,2667,2662,2656,2650,2645,2641,2637,2632,2628,2622,2617,2614,2610,2607,2605,2604,2601,2598,2596,2594,2594,2593,2590,2588,2587,2586,2583,2581,2582,2586,2592,2603,2617,2634,2654,2675,2696,2719,2741,2759,2775,2785,2791,2795,2794,2791,2787,2784,2779,2775,2772,2766,2763,2758,2754,2751,2746,2740,2734,2729,2722,2717,2712,2709,2705,2700,2694,2690,2685,2680,2676,2673,2666,2661,2656,2652,2648,2646,2644,2642,2639,2636,2634,2633,2631,2629,2627,2625,2623,2620,2619,2620,2622,2629,2638,2651,2667,2684,2703,2723,2744,2763,2780,2795,2804,2810,2812,2811,2809,2805,2799,2794,2788,2782,2775,2771,2767,2761,2757,2751,2745,2740,2735,2730,2724,2719,2713,2709,2705,2698,2693,2687,2680,2673,2666,2659,2653,2647,2639,2634,2629,2626,2621,2619,2617,2614,2612,2610,2608,2607,2605,2602,2599,2598,2597,2599,2605,2615,2627,2642,2662,2684,2706,2728,2750,2770,2786,2799,2807,2812,2812,2811,2807,2803,2800,2795,2790,2788,2783,2778,2775,2770,2764,2757,2750,2744,2738,2731,2724,2718,2713,2707,2703,2696,2691,2685,2678,2671,2666,2659,2653,2646,2641,2635,2631,2626,2622,2618,2615,2611,2609,2607,2604,2601,2599,2596,2594,2591,2588,2585,2585,2585,2591,2599,2612,2631,2649,2672,2696,2720,2743,2765,2784,2798,2808,2813,2814,2815,2811,2807,2803,2800,2796,2791,2787,2784,2780,2774,2768,2761,2756,2749,2741,2734,2727,2721,2715,2710,2704,2698,2692,2686,2680,2675,2669,2664,2657,2651,2646,2642,2638,2634,2631,2628,2625,2623,2621,2619,2616,2613,2609,2605,2601,2598,2593,2590,2588,2588,2592,2601,2615,2631,2650,2671,2693,2716,2738,2759,2775,2787,2794,2796,2797,2795,2792,2787,2782,2776,2770,2766,2762,2758,2754,2748,2743,2736,2730,2724,2717,2712,2705,2699,2692,2688,2684,2679,2673,2668,2662,2656,2650,2644,2639,2632,2626,2620,2616,2612,2607,2606,2604,2601,2600,2598,2595,2594,2593,2589,2587,2586,2585,2588,2593,2603,2619,2636,2655,2676,2699,2721,2742,2760,2777,2788,2795,2797,2796,2795,2791,2787,2782,2777,2773,2767,2762,2758,2753,2749,2744,2740,2736,2731,2728,2725,2722,2717,2712,2708,2703,2698,2692,2686,2678,2672,2665,2658,2651,2646,2641,2636,2633,2629,2627,2624,2620,2616,2614,2612,2609,2608,2609,2612,2620,2632,2647,2664,2684,2704,2726,2748,2768,2784,2798,2805,2810,2812,2811,2808,2804,2800,2795,2790,2784,2779,2775,2770,2764,2759,2755,2751,2744,2737,2732,2727,2722,2716,2712,2707,2701,2693,2687,2681,2673,2666,2660,2653,2647,2641,2635,2631,2627,2621,2618,2615,2612,2610,2607,2605,2603,2603,2605,2609,2617,2628,2643,2661,2682,2702,2724,2745,2765,2782,2796,2805,2810,2811,2810,2806,2804,2800,2795,2791,2787,2783,2779,2774,2771,2765,2760,2753,2745,2738,2730,2723,2718,2712,2707,2701,2696,2690,2685,2678,2673,2667,2661,2654,2648,2642,2636,2631,2628,2623,2620,2615,2611,2609,2607,2604,2602,2598,2595,2591,2591,2592,2598,2607,2619,2633,2654,2674,2697,2720,2743,2762,2780,2793,2802,2807,2811,2811,2809,2805,2803,2798,2796,2793,2788,2784,2780,2773,2767,2759,2753,2746,2739,2730,2724,2718,2711,2704,2699,2692,2685,2676,2669,2661,2655,2646,2639,2632,2626,2620,2615,2611,2607,2603,2600,2596,2595,2592,2589,2588,2586,2583,2580,2578,2573,2570,2567,2565,2566,2569,2577,2589,2606,2626,2649,2675,2701,2727,2750,2770,2787,2799,2807,2810,2810,2808,2804,2800,2795,2792,2789,2785,2781,2777,2772,2767,2761,2754,2749,2742,2735,2729,2723,2718,2712,2707,2701,2694,2688,2681,2673,2666,2659,2652,2645,2639,2633,2628,2623,2620,2616,2614,2611,2608,2605,2603,2600,2597,2592,2590,2585,2583,2583,2587,2595,2607,2623,2643,2666,2689,2712,2736,2758,2777,2790,2800,2805,2807,2804,2799,2795,2790,2784,2778,2771,2766,2760,2757,2751,2747,2741,2736,2730,2726,2720,2717,2712,2708,2702,2697,2690,2684,2676,2669,2661,2652,2642,2635,2627,2620,2613,2608,2604,2601,2598,2595,2594,2594,2590,2589,2586,2582,2578,2576,2574,2577,2582,2593,2606,2624,2643,2666,2689,2713,2735,2755,2769,2780,2786,2789,2788,2785,2779,2776,2769,2763,2756,2751,2744,2735,2727,2718,2708,2699,2688,2679,2669,2662,2653,2647,2642,2636,2631,2626,2620,2615,2609,2603,2598,2594,2589,2585,2581,2579,2576,2574,2574,2575,2575,2575,2577,2578,2579,2581,2581,2583,2585,2585,2586,2588,2594,2602,2614,2631,2651,2675,2700,2726,2754,2778,2801,2819,2834,2843,2847,2847,2844,2838,2833,2826,2820,2813,2808,2803,2798,2790,2784,2776,2768,2756,2745,2733,2721,2709,2699,2687,2676,2666,2657,2648,2640,2633,2626,2619,2613,2607,2602,2596,2593,2586,2582,2577,2572,2566,2562,2555,2548,2541,2534,2524,2516,2506,2496,2485,2476,2465,2455,2447,2441,2437,2439,2445,2458,2475,2497,2522,2551,2582,2614,2643,2672,2694,2712,2725,2732,2736,2738,2737,2735,2732,2730,2727,2724,2721,2719,2715,2710,2704,2700,2692,2685,2677,2670,2664,2658,2653,2649,2646,2645,2641,2638,2636,2634,2631,2629,2628,2626,2623,2621,2619,2619,2618,2617,2616,2617,2618,2619,2621,2624,2626,2628,2630,2633,2636,2640,2646,2657,2670,2689,2709,2732,2757,2785,2811,2837,2860,2879,2894,2904,2909,2909,2907,2903,2897,2891,2884,2877,2870,2863,2857,2852,2845,2839,2834,2826,2819,2811,2806,2800,2793,2787,2782,2776,2768,2759,2753,2744,2736,2728,2719,2712,2704,2699,2693,2688,2686,2682,2681,2677,2673,2672,2670,2667,2664,2663,2660,2657,2654,2651,2650,2649,2650,2655,2664,2676,2692,2711,2736,2762,2788,2814,2841,2862,2879,2891,2900,2903,2902,2900,2895,2888,2883,2876,2871,2865,2858,2849,2842,2833,2824,2813,2804,2793,2781,2769,2761,2753,2746,2738,2731,2723,2716,2709,2702,2695,2689,2680,2672,2663,2658,2650,2646,2640,2636,2630,2626,2622,2619,2617,2615,2611,2610,2606,2604,2601,2599,2597,2596,2593,2592,2590,2589,2588,2588,2588,2593,2600,2612,2627,2647,2671,2697,2725,2752,2779,2806,2828,2846,2858,2866,2867,2868,2865,2863,2860,2856,2851,2848,2845,2843,2839,2836,2831,2826,2818,2809,2801,2794,2786,2777,2769,2761,2752,2745,2736,2728,2721,2713,2705,2697,2689,2681,2674,2667,2662,2657,2653,2648,2643,2639,2636,2634,2632,2628,2625,2622,2618,2613,2612,2609,2606,2603,2599,2596,2594,2591,2589,2586,2584,2581,2580,2581,2586,2595,2610,2628,2650,2675,2703,2730,2759,2785,2808,2827,2841,2849,2854,2854,2852,2848,2844,2839,2836,2832,2829,2824,2822,2817,2814,2808,2805,2798,2791,2784,2778,2770,2763,2755,2750,2742,2735,2726,2721,2713,2706,2697,2689,2681,2677,2668,2662,2655,2651,2643,2639,2634,2631,2626,2621,2614,2611,2607,2603,2598,2595,2588,2584,2578,2575,2570,2567,2561,2555,2550,2547,2545,2548,2553,2563,2577,2598,2620,2647,2673,2703,2731,2757,2779,2798,2811,2820,2823,2821,2811,2808,2802,2798,2793,2789,2784,2781,2776,2772,2766,2760,2753,2748,2743,2739,2732,2727,2721,2717,2709,2704,2697,2690,2683,2675,2666,2660,2652,2645,2640,2636,2631,2627,2624,2621,2617,2614,2611,2610,2607,2604,2602,2599,2594,2588,2585,2582,2581,2582,2588,2597,2610,2626,2647,2672,2698,2725,2749,2773,2794,2808,2818,2825,2828,2826,2821,2814,2807,2800,2793,2783,2776,2766,2759,2749,2740,2730,2722,2712,2703,2693,2685,2677,2670,2662,2656,2649,2643,2635,2628,2622,2615,2609,2604,2599,2597,2593,2591,2588,2588,2587,2588,2588,2588,2588,2589,2586,2587,2584,2586,2587,2592,2599,2612,2627,2647,2669,2695,2720,2748,2773,2796,2815,2831,2841,2848,2849,2850,2848,2847,2842,2841,2837,2835,2832,2829,2825,2820,2815,2811,2803,2796,2788,2782,2774,2769,2761,2756,2749,2743,2734,2729,2719,2714,2703,2697,2687,2680,2671,2666,2658,2652,2644,2641,2634,2632,2626,2622,2619,2616,2610,2608,2605,2605,2606,2613,2622,2637,2654,2675,2695,2720,2744,2769,2789,2808,2821,2832,2837,2839,2839,2839,2836,2833,2829,2826,2822,2818,2812,2807,2801,2795,2787,2779,2771,2763,2756,2749,2743,2736,2730,2725,2720,2714,2707,2700,2694,2686,2679,2671,2665,2658,2650,2644,2638,2632,2626,2620,2615,2609,2604,2598,2593,2588,2583,2578,2574,2571,2571,2573,2581,2593,2608,2626,2648,2671,2697,2721,2745,2765,2784,2795,2803,2807,2811,2810,2809,2804,2802,2799,2796,2789,2786,2779,2773,2765,2757,2745,2737,2725,2715,2705,2697,2688,2682,2673,2667,2659,2654,2645,2638,2629,2622,2612,2606,2597,2592,2584,2579,2573,2569,2564,2564,2560,2558,2556,2554,2549,2549,2545,2544,2541,2540,2535,2533,2529,2527,2526,2529,2534,2545,2557,2577,2598,2626,2653,2685,2712,2740,2763,2784,2797,2808,2812,2814,2811,2809,2802,2799,2793,2790,2784,2780,2774,2768,2761,2754,2745,2736,2726,2718,2708,2701,2692,2685,2678,2672,2664,2657,2649,2643,2635,2627,2620,2612,2606,2600,2593,2588,2583,2580,2574,2571,2569,2566,2562,2560,2558,2557,2556,2552,2549,2547,2545,2542,2539,2537,2533,2531,2531,2533,2541,2553,2568,2588,2612,2638,2665,2692,2718,2742,2762,2777,2790,2796,2799,2798,2797,2795,2795,2791,2788,2786,2783,2778,2775,2769,2763,2755,2750,2740,2735,2729,2724,2718,2715,2708,2705,2699,2693,2686,2681,2671,2664,2657,2651,2643,2638,2633,2630,2625,2623,2620,2618,2615,2611,2609,2607,2604,2604,2605,2610,2616,2627,2640,2660,2680,2701,2722,2745,2764,2782,2793,2804,2809,2812,2808,2807,2802,2797,2790,2786,2778,2776,2769,2765,2759,2754,2747,2742,2736,2730,2723,2719,2710,2706,2699,2693,2684,2678,2669,2662,2654,2649,2640,2634,2626,2620,2613,2610,2605,2601,2596,2594,2589,2587,2584,2584,2584,2589,2595,2607,2620,2637,2656,2676,2698,2722,2742,2764,2779,2791,2800,2807,2809,2811,2810,2810,2806,2805,2800,2797,2793,2789,2782,2774,2766,2758,2748,2741,2732,2723,2714,2705,2698,2693,2687,2680,2674,2668,2660,2652,2644,2639,2633,2626,2622,2618,2613,2609,2605,2602,2600,2599,2598,2595,2593,2590,2589,2591,2596,2604,2616,2631,2648,2666,2689,2710,2731,2749,2766,2778,2787,2792,2795,2795,2796,2794,2793,2791,2791,2789,2789,2786,2783,2777,2771,2762,2753,2742,2735,2724,2717,2707,2700,2692,2686,2678,2671,2663,2658,2649,2642,2634,2628,2620,2615,2611,2609,2607,2608,2607,2612,2614,2618,2620,2624,2625,2628,2627,2627,2623,2624,2620,2623,2624,2633,2641,2658,2674,2698,2720,2746,2768,2793,2810,2825,2834,2842,2843,2845,2840,2837,2831,2825,2818,2813,2805,2799,2790,2781,2770,2761,2749,2738,2727,2717,2707,2699,2690,2683,2677,2672,2664,2658,2650,2644,2636,2630,2623,2617,2611,2606,2599,2596,2590,2588,2585,2584,2579,2572,2564,2555,2544,2536,2530,2528,2529,2535,2543,2560,2581,2606,2633,2662,2689,2713,2734,2752,2764,2774,2779,2783,2785,2787,2787,2787,2786,2783,2780,2777,2772,2766,2759,2753,2746,2739,2732,2726,2721,2716,2712,2706,2701,2695,2689,2681,2673,2666,2660,2651,2643,2634,2626,2619,2615,2608,2604,2598,2593,2589,2587,2583,2581,2576,2574,2571,2573,2576,2584,2596,2613,2630,2653,2676,2702,2725,2749,2767,2783,2794,2803,2804,2804,2800,2796,2789,2785,2776,2771,2762,2756,2746,2739,2729,2721,2710,2702,2690,2682,2673,2666,2656,2650,2641,2634,2625,2619,2610,2605,2597,2592,2584,2579,2573,2569,2563,2561,2557,2556,2552,2552,2549,2550,2548,2548,2546,2547,2545,2545,2544,2548,2553,2564,2578,2596,2616,2641,2662,2690,2714,2739,2757,2775,2784,2791,2792,2792,2789,2786,2778,2775,2768,2764,2757,2754,2748,2746,2740,2735,2729,2725,2718,2715,2710,2707,2702,2699,2693,2689,2684,2680,2674,2669,2662,2657,2651,2645,2640,2636,2631,2628,2625,2624,2622,2620,2618,2618,2616,2617,2617,2620,2626,2634,2646,2663,2682,2703,2723,2746,2767,2786,2804,2817,2826,2830,2831,2827,2822,2817,2812,2807,2801,2795,2789,2783,2778,2772,2768,2762,2757,2750,2744,2738,2733,2729,2725,2720,2716,2709,2702,2694,2686,2678,2670,2661,2654,2647,2642,2635,2632,2628,2627,2624,2623,2621,2620,2617,2615,2613,2612,2609,2609,2609,2617,2626,2642,2659,2682,2703,2728,2751,2776,2796,2814,2826,2835,2837,2839,2836,2833,2825,2821,2815,2811,2805,2802,2796,2794,2787,2782,2775,2771,2763,2758,2750,2746,2739,2735,2728,2725,2718,2713,2705,2699,2691,2684,2675,2670,2662,2658,2650,2648,2643,2640,2636,2634,2631,2628,2624,2622,2619,2620,2620,2625,2633,2645,2659,2679,2699,2723,2743,2766,2785,2803,2817,2827,2831,2833,2830,2826,2820,2816,2809,2803,2797,2792,2785,2780,2774,2769,2762,2755,2747,2742,2735,2729,2722,2717,2711,2705,2698,2693,2687,2680,2672,2664,2657,2650,2643,2637,2631,2626,2622,2618,2614,2611,2608,2605,2602,2601,2602,2606,2614,2624,2639,2656,2674,2694,2716,2736,2754,2769,2781,2786,2790,2789,2787,2782,2777,2770,2764,2758,2753,2747,2742,2738,2733,2727,2722,2715,2710,2704,2699,2693,2691,2686,2681,2676,2672,2667,2663,2657,2651,2644,2640,2633,2629,2624,2621,2617,2615,2612,2610,2607,2606,2602,2601,2598,2598,2597,2601,2605,2618,2630,2646,2664,2684,2705,2726,2744,2763,2775,2784,2787,2789,2787,2786,2781,2777,2771,2768,2761,2758,2754,2752,2748,2744,2738,2735,2730,2727,2720,2717,2711,2706,2699,2695,2690,2686,2678,2673,2665,2660,2653,2649,2643,2639,2634,2631,2628,2625,2623,2622,2619,2618,2616,2616,2614,2613,2611,2611,2609,2612,2616,2624,2636,2652,2670,2691,2712,2733,2754,2773,2788,2801,2808,2810,2809,2805,2799,2794,2787,2780,2773,2767,2761,2757,2753,2749,2744,2740,2735,2730,2726,2722,2718,2715,2711,2708,2705,2701,2696,2691,2687,2682,2677,2673,2670,2667,2664,2662,2661,2662,2661,2660,2661,2660,2658,2657,2655,2655,2657,2661,2668,2678,2691,2706,2722,2738,2754,2769,2782,2791,2798,2800,2800,2795,2792,2786,2780,2774,2769,2763,2758,2753,2750,2745,2742,2737,2735,2729,2727,2724,2721,2715,2711,2705,2701,2694,2688,2680,2673,2665,2659,2652,2647,2644,2639,2633,2630,2627,2625,2622,2621,2617,2617,2613,2613,2612,2616,2622,2634,2647,2664,2681,2701,2720,2740,2757,2773,2785,2793,2795,2798,2794,2791,2785,2782,2776,2774,2768,2765,2762,2757,2753,2751,2745,2740,2734,2729,2722,2719,2711,2706,2701,2696,2689,2683,2675,2670,2661,2654,2648,2643,2636,2630,2624,2620,2618,2615,2611,2609,2605,2603,2601,2599,2598,2598,2600,2605,2613,2625,2640,2658,2677,2698,2718,2739,2757,2772,2783,2790,2795,2796,2793,2791,2788,2784,2780,2777,2774,2770,2767,2763,2759,2754,2748,2740,2735,2729,2722,2716,2711,2706,2703,2698,2693,2689,2684,2678,2674,2670,2664,2658,2652,2647,2644,2639,2636,2633,2630,2626,2624,2622,2621,2619,2617,2612,2610,2608,2607,2609,2615,2623,2635,2649,2669,2690,2712,2734,2755,2775,2790,2801,2809,2811,2811,2808,2802,2796,2791,2785,2779,2773,2769,2763,2758,2752,2747,2739,2734,2726,2720,2714,2708,2702,2696,2692,2687,2682,2679,2673,2667,2661,2654,2649,2643,2637,2632,2627,2622,2618,2614,10,11,8
2469,2458,2446,2436,2426,2417,2407,2399,2391,2383,2375,2369,2362,2359,2358,2366,2382,2410,2447,2490,2538,2591,2646,2705,2759,2811,2855,2891,2916,2934,2945,2952,2954,2956,2954,2952,2947,2943,2936,2928,2917,2905,2890,2875,2857,2840,2822,2805,2786,2768,2751,2734,2716,2700,2682,2666,2648,2630,2611,2593,2575,2558,2543,2528,2513,2499,2485,2473,2463,2452,2442,2434,2426,2420,2413,2407,2402,2396,2391,2386,2381,2377,2374,2374,2379,2390,2412,2443,2483,2528,2579,2632,2688,2741,2792,2837,2876,2904,2922,2932,2937,2938,2936,2931,2926,2920,2914,2905,2896,2887,2878,2865,2852,2838,2825,2810,2797,2782,2770,2757,2744,2729,2718,2705,2691,2677,2664,2649,2634,2620,2608,2594,2581,2569,2558,2548,2539,2530,2523,2517,2512,2503,2499,2494,2492,2492,2500,2513,2536,2563,2598,2635,2680,2722,2767,2809,2848,2880,2906,2922,2933,2937,2937,2934,2931,2924,2919,2911,2904,2896,2887,2874,2863,2850,2837,2821,2806,2792,2778,2763,2749,2734,2722,2708,2695,2680,2667,2652,2637,2621,2606,2590,2577,2562,2549,2537,2525,2514,2505,2496,2489,2482,2476,2471,2469,2471,2480,2497,2523,2554,2591,2631,2674,2718,2763,2805,2844,2874,2898,2913,2923,2928,2930,2929,2926,2923,2920,2915,2909,2903,2895,2886,2875,2862,2849,2835,2819,2804,2789,2774,2759,2745,2731,2719,2706,2693,2681,2668,2653,2640,2627,2613,2599,2587,2573,2562,2551,2540,2530,2522,2514,2506,2498,2491,2485,2478,2472,2469,2469,2477,2493,2517,2546,2583,2623,2666,2709,2754,2796,2835,2866,2890,2905,2915,2920,2921,2920,2918,2916,2913,2908,2905,2897,2891,2881,2872,2859,2847,2833,2819,2804,2791,2777,2763,2751,2739,2726,2715,2702,2691,2678,2665,2651,2638,2625,2611,2598,2587,2573,2562,2550,2540,2530,2520,2511,2504,2496,2487,2480,2475,2468,2463,2455,2449,2443,2439,2436,2437,2445,2462,2486,2520,2558,2602,2648,2696,2742,2787,2828,2863,2887,2905,2915,2921,2922,2921,2919,2917,2913,2910,2904,2898,2891,2882,2871,2860,2848,2834,2820,2805,2791,2777,2764,2752,2740,2727,2714,2702,2690,2678,2665,2652,2639,2625,2612,2599,2587,2575,2564,2554,2545,2535,2526,2519,2511,2504,2499,2492,2487,2482,2477,2471,2465,2461,2455,2449,2445,2440,2437,2436,2440,2451,2471,2500,2537,2581,2628,2676,2726,2776,2822,2865,2898,2922,2936,2943,2944,2942,2938,2933,2926,2920,2912,2905,2896,2887,2876,2865,2854,2841,2829,2816,2803,2789,2775,2763,2752,2741,2730,2717,2706,2693,2680,2667,2655,2643,2629,2616,2604,2592,2581,2571,2562,2554,2546,2539,2533,2528,2523,2517,2512,2507,2502,2495,2490,2487,2485,2487,2497,2515,2541,2573,2613,2656,2702,2747,2792,2834,2869,2899,2920,2933,2940,2942,2940,2936,2931,2925,2919,2914,2906,2898,2888,2877,2865,2852,2839,2825,2811,2797,2784,2770,2757,2746,2733,2721,2709,2697,2683,2669,2657,2643,2630,2617,2603,2592,2581,2568,2558,2548,2539,2530,2524,2519,2512,2505,2498,2492,2487,2480,2475,2470,2467,2465,2467,2479,2500,2529,2565,2607,2652,2700,2748,2795,2840,2880,2911,2935,2950,2959,2963,2962,2961,2960,2957,2953,2949,2943,2937,2928,2918,2906,2894,2881,2866,2851,2836,2821,2807,2793,2780,2767,2753,2741,2728,2715,2701,2687,2673,2659,2645,2632,2619,2607,2595,2581,2571,2560,2551,2542,2533,2524,2515,2507,2500,2494,2487,2480,2473,2467,2460,2454,2451,2448,2449,2456,2472,2499,2533,2575,2619,2669,2720,2771,2820,2864,2903,2932,2952,2965,2970,2972,2970,2966,2962,2959,2955,2950,2942,2933,2924,2913,2902,2889,2877,2864,2848,2833,2817,2803,2789,2777,2765,2751,2737,2723,2707,2693,2678,2663,2648,2631,2613,2597,2583,2569,2556,2543,2530,2519,2509,2499,2491,2482,2474,2465,2459,2451,2443,2436,2430,2424,2417,2412,2410,2411,2420,2439,2466,2503,2544,2590,2640,2693,2745,2796,2841,2880,2911,2931,2942,2950,2954,2954,2951,2948,2943,2939,2932,2925,2917,2909,2897,2884,2870,2856,2842,2828,2814,2801,2789,2775,2761,2748,2735,2723,2710,2696,2681,2666,2651,2635,2619,2605,2591,2579,2564,2550,2539,2529,2519,2509,2500,2494,2486,2479,2473,2468,2463,2456,2449,2444,2440,2436,2432,2434,2444,2460,2487,2521,2565,2613,2662,2714,2765,2815,2860,2898,2926,2946,2957,2960,2961,2958,2953,2947,2940,2932,2923,2914,2903,2893,2880,2868,2854,2841,2827,2813,2799,2787,2774,2760,2745,2732,2717,2702,2686,2671,2654,2640,2623,2608,2593,2580,2567,2556,2544,2534,2526,2518,2509,2501,2494,2487,2480,2475,2471,2469,2473,2485,2505,2536,2572,2612,2657,2705,2754,2801,2846,2888,2920,2943,2959,2970,2976,2978,2979,2978,2977,2973,2969,2963,2956,2947,2936,2925,2911,2896,2880,2864,2848,2831,2816,2800,2785,2769,2753,2737,2720,2702,2684,2664,2646,2627,2609,2591,2575,2558,2544,2530,2517,2504,2494,2483,2474,2465,2457,2449,2442,2434,2428,2421,2414,2410,2411,2415,2427,2450,2482,2521,2567,2617,2671,2727,2784,2835,2884,2925,2957,2977,2994,3005,3013,3018,3020,3020,3020,3019,3017,3013,3007,2997,2987,2973,2958,2941,2924,2907,2888,2869,2850,2832,2814,2794,2777,2759,2741,2723,2702,2681,2662,2641,2620,2600,2583,2564,2546,2528,2513,2497,2483,2468,2457,2445,2435,2424,2414,2404,2396,2387,2379,2372,2365,2356,2349,2342,2335,2329,2322,2316,2311,2307,2304,2299,2296,2293,2292,2292,2297,2307,2328,2361,2403,2456,2517,2583,2652,2725,2796,2864,2927,2981,3021,3052,3073,3086,3095,3100,3102,3103,3102,3099,3095,3090,3082,3072,3062,3048,3033,3016,2997,2978,2958,2937,2916,2896,2875,2854,2833,2812,2790,2768,2745,2724,2701,2682,2660,2640,2619,2601,2582,2565,2549,2534,2518,2506,2493,2481,2468,2458,2446,2437,2427,2417,2409,2401,2392,2384,2376,2368,2359,2352,2345,2339,2334,2330,2330,2337,2351,2378,2415,2461,2515,2574,2637,2703,2769,2833,2888,2938,2973,3002,3018,3031,3035,3037,3036,3035,3029,3025,3018,3011,3000,2990,2975,2962,2945,2926,2906,2886,2866,2846,2826,2808,2789,2771,2752,2733,2712,2693,2673,2655,2634,2614,2595,2576,2557,2541,2524,2509,2496,2483,2471,2461,2451,2443,2434,2427,2418,2412,2406,2400,2394,2387,2381,2378,2378,2383,2399,2424,2457,2498,2546,2600,2657,2714,2771,2825,2872,2910,2939,2959,2971,2978,2980,2978,2976,2970,2966,2959,2950,2940,2929,2917,2903,2889,2875,2859,2844,2828,2814,2800,2785,2770,2755,2740,2723,2706,2690,2672,2655,2637,2620,2604,2588,2572,2558,2545,2532,2518,2508,2496,2487,2478,2469,2459,2449,2441,2434,2427,2424,2426,2436,2453,2482,2516,2562,2612,2667,2722,2779,2835,2885,2928,2966,2993,3014,3026,3035,3037,3040,3039,3037,3035,3030,3021,3011,2998,2985,2968,2952,2932,2914,2893,2873,2853,2834,2815,2797,2777,2758,2737,2719,2699,2679,2658,2639,2618,2599,2581,2563,2545,2530,2514,2502,2489,2477,2464,2454,2443,2434,2425,2418,2409,2401,2391,2387,2383,2385,2395,2414,2442,2481,2526,2579,2637,2697,2756,2819,2876,2926,2966,2998,3022,3038,3050,3058,3064,3067,3067,3067,3065,3062,3054,3044,3032,3017,3001,2981,2961,2939,2917,2893,2870,2847,2827,2805,2783,2761,2741,2720,2698,2675,2654,2634,2612,2590,2571,2551,2532,2514,2496,2480,2467,2453,2441,2428,2418,2407,2398,2389,2380,2370,2362,2354,2347,2339,2332,2325,2319,2312,2308,2302,2298,2294,2291,2291,2297,2309,2331,2364,2408,2459,2519,2584,2654,2725,2795,2861,2922,2971,3013,3043,3067,3083,3093,3099,3103,3104,3105,3103,3100,3093,3086,3074,3062,3046,3029,3008,2989,2964,2942,2918,2897,2874,2852,2830,2810,2789,2768,2745,2725,2702,2682,2658,2638,2616,2596,2575,2556,2539,2522,2506,2493,2477,2465,2451,2441,2429,2421,2410,2400,2390,2381,2372,2365,2357,2349,2342,2336,2329,2324,2317,2314,2310,2308,2309,2318,2335,2361,2399,2446,2500,2563,2629,2698,2767,2834,2895,2947,2989,3022,3044,3061,3070,3074,3077,3077,3075,3072,3066,3058,3050,3037,3022,3007,2989,2968,2946,2923,2900,2878,2856,2834,2813,2790,2767,2745,2723,2701,2680,2657,2636,2615,2593,2573,2555,2535,2519,2503,2489,2475,2464,2451,2440,2429,2420,2409,2401,2391,2383,2375,2369,2360,2355,2347,2343,2337,2333,2327,2323,2319,2319,2322,2335,2355,2387,2426,2475,2531,2595,2659,2726,2790,2852,2905,2952,2986,3014,3030,3042,3046,3048,3047,3045,3040,3035,3027,3017,3005,2993,2976,2961,2941,2925,2905,2887,2866,2848,2830,2812,2794,2777,2758,2742,2722,2706,2686,2671,2650,2633,2615,2599,2583,2571,2556,2545,2531,2520,2509,2500,2491,2482,2473,2464,2454,2446,2437,2429,2422,2419,2422,2433,2452,2481,2519,2566,2616,2671,2727,2786,2841,2892,2935,2971,2999,3017,3030,3036,3040,3040,3039,3037,3030,3023,3014,3003,2990,2974,2958,2940,2921,2901,2882,2863,2844,2825,2805,2786,2767,2748,2729,2708,2688,2668,2648,2627,2609,2591,2573,2556,2539,2524,2510,2496,2484,2472,2463,2451,2442,2432,2425,2415,2408,2399,2392,2385,2378,2373,2373,2375,2389,2408,2441,2481,2531,2585,2646,2708,2773,2834,2893,2944,2988,3021,3047,3065,3079,3087,3095,3096,3100,3099,3097,3091,3084,3072,3060,3044,3028,3007,2987,2963,2939,2913,2890,2866,2843,2820,2795,2771,2749,2725,2704,2681,2660,2638,2617,2597,2576,2558,2540,2523,2507,2490,2476,2460,2448,2435,2425,2412,2404,2393,2384,2374,2366,2357,2351,2343,2337,2329,2324,2321,2327,2338,2358,2388,2430,2478,2534,2596,2662,2729,2796,2857,2914,2963,3003,3032,3054,3071,3083,3092,3098,3102,3105,3104,3102,3096,3089,3078,3063,3046,3025,3004,2980,2956,2931,2905,2880,2855,2831,2808,2785,2761,2737,2715,2692,2669,2647,2625,2603,2581,2559,2540,2520,2502,2485,2469,2451,2437,2423,2410,2399,2387,2375,2366,2356,2346,2338,2330,2319,2312,2305,2299,2292,2288,2283,2282,2284,2294,2313,2344,2383,2434,2490,2554,2620,2690,2759,2826,2885,2938,2982,3016,3039,3059,3070,3080,3087,3092,3092,3092,3086,3080,3069,3059,3043,3026,3005,2984,2959,2936,2910,2887,2862,2839,2815,2793,2770,2747,2723,2701,2678,2657,2634,2614,2593,2572,2553,2537,2519,2503,2487,2474,2459,2447,2434,2423,2412,2402,2390,2382,2372,2365,2356,2349,2340,2334,2328,2322,2316,2310,2305,2302,2299,2303,2312,2333,2363,2403,2451,2509,2571,2637,2706,2775,2839,2899,2949,2989,3020,3043,3058,3068,3075,3077,3078,3077,3072,3066,3058,3048,3035,3020,3004,2985,2965,2944,2924,2901,2880,2860,2838,2817,2797,2776,2755,2734,2711,2690,2670,2647,2628,2609,2590,2570,2553,2534,2519,2504,2491,2478,2467,2455,2444,2433,2424,2413,2407,2397,2390,2380,2374,2364,2357,2350,2345,2340,2339,2338,2348,2365,2392,2428,2477,2532,2594,2658,2726,2792,2859,2916,2968,3009,3041,3064,3081,3089,3097,3098,3099,3096,3092,3083,3076,3063,3049,3032,3015,2993,2973,2949,2926,2902,2880,2855,2835,2811,2789,2767,2745,2720,2698,2674,2653,2630,2609,2587,2568,2547,2530,2513,2500,2485,2472,2459,2447,2434,2425,2413,2406,2395,2388,2377,2370,2361,2355,2346,2340,2333,2327,2319,2314,2308,2304,2298,2297,2297,2306,2321,2346,2381,2430,2486,2552,2624,2700,2778,2854,2925,2990,3044,3088,3123,3147,3163,3172,3177,3178,3177,3175,3170,3164,3153,3140,3125,3108,3089,3068,3045,3021,2998,2971,2945,2920,2894,2868,2843,2819,2796,2771,2746,2721,2699,2675,2652,2629,2608,2587,2567,2547,2530,2512,2497,2479,2464,2452,2439,2426,2414,2402,2392,2381,2372,2361,2354,2345,2338,2329,2324,2316,2311,2302,2298,2292,2288,2284,2284,2285,2294,2309,2337,2375,2426,2484,2554,2626,2705,2782,2861,2934,3000,3054,3098,3128,3154,3168,3178,3181,3184,3179,3175,3167,3159,3147,3133,3116,3098,3078,3055,3031,3007,2980,2956,2929,2906,2880,2856,2831,2808,2784,2759,2734,2711,2686,2663,2638,2618,2595,2574,2552,2531,2512,2497,2479,2465,2450,2438,2425,2416,2403,2395,2386,2377,2368,2360,2350,2343,2334,2329,2321,2314,2306,2301,2296,2291,2286,2283,2279,2279,2282,2293,2315,2347,2389,2444,2507,2579,2654,2734,2814,2891,2963,3025,3075,3113,3140,3159,3171,3175,3175,3172,3167,3158,3148,3136,3123,3108,3091,3072,3053,3032,3009,2985,2963,2938,2915,2892,2869,2846,2823,2796,2772,2747,2724,2698,2675,2650,2627,2602,2580,2558,2538,2517,2500,2481,2466,2451,2438,2425,2416,2404,2395,2385,2380,2371,2366,2358,2354,2347,2342,2335,2330,2326,2322,2317,2316,2313,2315,2314,2321,2334,2357,2389,2433,2485,2547,2612,2686,2758,2835,2906,2975,3030,3079,3111,3137,3151,3159,3159,3158,3148,3140,3126,3115,3098,3085,3067,3051,3030,3012,2990,2972,2950,2930,2909,2890,2869,2850,2828,2810,2789,2768,2744,2724,2701,2678,2652,2632,2609,2589,2567,2548,2530,2515,2499,2485,2473,2462,2448,2438,2427,2417,2406,2396,2385,2374,2362,2350,2338,2328,2322,2320,2324,2340,2365,2399,2443,2498,2559,2624,2692,2760,2826,2886,2937,2979,3011,3031,3047,3056,3060,3060,3056,3050,3042,3032,3022,3012,3001,2986,2972,2956,2941,2923,2909,2893,2879,2861,2845,2830,2812,2795,2776,2756,2738,2717,2694,2672,2652,2630,2612,2590,2572,2555,2540,2522,2508,2497,2484,2470,2460,2448,2441,2432,2422,2413,2409,2402,2402,2407,2420,2441,2473,2514,2565,2622,2686,2750,2820,2886,2948,3005,3055,3090,3120,3140,3154,3161,3168,3168,3166,3161,3153,3141,3131,3114,3101,3082,3062,3039,3016,2991,2965,2939,2915,2889,2868,2840,2816,2789,2765,2740,2716,2691,2668,2643,2618,2591,2569,2547,2526,2506,2486,2467,2451,2433,2417,2404,2391,2378,2368,2355,2345,2335,2327,2319,2313,2309,2311,2317,2331,2356,2392,2436,2490,2549,2614,2684,2755,2823,2887,2946,2996,3036,3068,3090,3109,3120,3126,3128,3128,3125,3118,3109,3098,3084,3065,3045,3023,2999,2976,2951,2924,2897,2870,2843,2817,2793,2767,2741,2715,2690,2664,2639,2615,2591,2565,2544,2521,2501,2480,2461,2442,2427,2410,2395,2380,2367,2354,2344,2332,2324,2314,2304,2294,2288,2281,2275,2267,2263,2256,2253,2251,2257,2269,2295,2326,2369,2421,2484,2549,2621,2694,2768,2835,2900,2952,2996,3026,3053,3066,3080,3085,3089,3087,3083,3076,3069,3058,3048,3030,3015,2993,2974,2953,2931,2908,2884,2861,2838,2814,2794,2771,2752,2726,2705,2682,2662,2638,2617,2595,2573,2552,2532,2512,2493,2474,2458,2441,2428,2413,2402,2389,2379,2368,2359,2350,2342,2333,2326,2318,2311,2304,2299,2293,2295,2301,2316,2340,2374,2417,2470,2529,2595,2663,2733,2800,2864,2921,2969,3006,3034,3055,3069,3077,3083,3085,3085,3084,3080,3075,3070,3063,3053,3044,3033,3021,3008,2993,2978,2963,2946,2929,2910,2893,2871,2848,2824,2801,2776,2750,2724,2698,2672,2649,2625,2602,2580,2558,2538,2520,2503,2485,2468,2454,2438,2424,2410,2399,2387,2376,2365,2360,2358,2366,2381,2409,2443,2490,2542,2602,2664,2731,2794,2855,2909,2956,2993,3023,3041,3057,3063,3070,3069,3069,3064,3059,3048,3037,3022,3008,2989,2970,2947,2924,2899,2878,2854,2833,2808,2788,2762,2740,2715,2694,2670,2646,2619,2598,2573,2552,2527,2508,2487,2469,2449,2432,2416,2404,2388,2378,2364,2356,2345,2336,2327,2319,2311,2305,2298,2293,2288,2288,2291,2305,2326,2362,2406,2460,2521,2589,2661,2735,2808,2879,2941,2996,3038,3072,3098,3116,3127,3136,3138,3139,3136,3132,3124,3113,3099,3082,3064,3043,3019,2994,2968,2940,2911,2884,2858,2830,2804,2778,2751,2726,2701,2675,2650,2627,2602,2578,2558,2535,2513,2493,2474,2455,2438,2422,2408,2393,2379,2366,2355,2344,2334,2324,2315,2304,2296,2287,2280,2272,2267,2259,2255,2251,2253,2261,2280,2307,2349,2398,2459,2526,2601,2678,2757,2833,2906,2970,3026,3068,3103,3127,3148,3159,3168,3172,3175,3172,3168,3159,3150,3134,3118,3097,3076,3050,3024,2995,2968,2939,2913,2884,2857,2830,2805,2778,2754,2728,2704,2678,2657,2631,2609,2585,2564,2543,2523,2502,2485,2466,2451,2433,2421,2405,2394,2381,2371,2360,2351,2338,2330,2320,2312,2302,2295,2287,2280,2275,2276,2281,2298,2322,2360,2406,2463,2526,2598,2672,2748,2821,2892,2953,3006,3048,3080,3102,3118,3127,3131,3132,3130,3124,3117,3105,3092,3075,3056,3036,3014,2988,2962,2933,2905,2877,2848,2821,2794,2768,2742,2717,2693,2668,2644,2620,2597,2575,2552,2530,2508,2489,2469,2451,2434,2418,2402,2389,2375,2364,2354,2344,2334,2327,2317,2309,2301,2293,2285,2280,2272,2267,2263,2262,2265,2277,2296,2329,2369,2422,2480,2548,2618,2692,2765,2836,2898,2955,2998,3034,3058,3076,3084,3091,3089,3087,3079,3073,3061,3048,3032,3018,2998,2980,2957,2936,2914,2893,2870,2851,2829,2810,2787,2765,2743,2722,2699,10,4,3
2694,2691,2691,2688,2689,2689,2691,2689,2689,2687,2686,2683,2681,2675,2673,2666,2662,2656,2651,2642,2636,2627,2618,2607,2603,2599,2602,2606,2617,2630,2651,2670,2693,2714,2735,2751,2764,2772,2778,2779,2778,2772,2768,2762,2757,2750,2745,2737,2730,2720,2712,2703,2695,2686,2680,2673,2668,2664,2658,2652,2648,2644,2638,2631,2623,2615,2607,2597,2589,2581,2575,2569,2563,2556,2550,2545,2542,2540,2542,2548,2559,2574,2592,2614,2638,2663,2687,2711,2732,2750,2765,2776,2782,2786,2786,2787,2786,2786,2783,2779,2774,2772,2765,2761,2754,2749,2742,2735,2728,2723,2718,2714,2706,2702,2693,2688,2676,2666,2655,2647,2637,2630,2622,2618,2611,2610,2606,2606,2603,2601,2597,2593,2589,2591,2593,2602,2609,2624,2638,2657,2675,2696,2715,2734,2749,2763,2772,2782,2787,2793,2795,2799,2799,2801,2799,2798,2795,2792,2786,2782,2775,2773,2768,2767,2765,2766,2765,2765,2763,2762,2756,2750,2741,2731,2719,2709,2696,2685,2673,2665,2655,2649,2641,2637,2630,2625,2619,2617,2614,2618,2623,2633,2646,2664,2681,2703,2724,2745,2763,2781,2792,2801,2806,2809,2812,2813,2811,2811,2809,2807,2803,2798,2792,2784,2773,2762,2748,2737,2726,2717,2708,2701,2695,2689,2684,2681,2677,2673,2668,2660,2653,2646,2639,2631,2623,2614,2604,2595,2587,2581,2581,2583,2592,2605,2621,2641,2665,2686,2710,2730,2748,2760,2766,2765,2761,2753,2743,2730,2719,2707,2697,2687,2680,2673,2670,2665,2662,2657,2655,2651,2649,2646,2643,2640,2638,2634,2631,2626,2622,2615,2609,2601,2596,2588,2582,2573,2567,2560,2559,2558,2564,2571,2587,2603,2626,2650,2677,2706,2734,2757,2781,2798,2812,2818,2823,2823,2822,2817,2812,2805,2799,2790,2784,2778,2774,2768,2763,2758,2754,2750,2749,2747,2745,2740,2736,2730,2723,2713,2705,2694,2686,2673,2661,2650,2640,2630,2620,2609,2602,2595,2593,2593,2600,2610,2626,2643,2665,2689,2715,2742,2766,2785,2802,2813,2821,2824,2828,2827,2825,2821,2817,2812,2809,2803,2798,2793,2788,2780,2774,2769,2763,2757,2752,2746,2740,2733,2727,2721,2713,2704,2695,2686,2677,2666,2657,2649,2640,2632,2623,2615,2608,2604,2600,2602,2608,2619,2634,2653,2671,2694,2718,2742,2763,2783,2798,2810,2817,2820,2821,2821,2817,2814,2808,2802,2793,2787,2780,2773,2766,2759,2751,2746,2740,2737,2731,2729,2722,2717,2709,2702,2692,2684,2673,2664,2652,2644,2631,2623,2611,2604,2594,2586,2576,2571,2565,2566,2569,2579,2591,2611,2630,2656,2680,2709,2733,2757,2774,2789,2796,2804,2806,2809,2806,2806,2801,2799,2794,2792,2789,2788,2783,2780,2776,2775,2771,2770,2768,2770,2768,2768,2765,2763,2758,2753,2744,2738,2729,2722,2712,2705,2695,2687,2677,2670,2661,2653,2644,2639,2636,2639,2645,2658,2673,2694,2717,2741,2765,2790,2810,2827,2839,2845,2848,2848,2845,2841,2836,2832,2828,2823,2817,2814,2810,2805,2802,2799,2795,2790,2785,2781,2778,2776,2772,2767,2762,2754,2744,2734,2722,2707,2695,2680,2665,2650,2638,2626,2617,2609,2606,2605,2610,2618,2631,2648,2666,2683,2704,2721,2739,2751,2763,2771,2776,2778,2778,2776,2775,2771,2769,2764,2761,2755,2752,2746,2742,2736,2732,2726,2722,2717,2714,2708,2706,2701,2697,2689,2681,2670,2659,2645,2632,2618,2607,2592,2581,2568,2557,2547,2542,2539,2541,2547,2561,2576,2599,2620,2646,2672,2698,2722,2743,2758,2770,2772,2774,2769,2765,2758,2750,2739,2731,2721,2713,2703,2697,2689,2682,2674,2670,2663,2661,2655,2652,2650,2648,2643,2640,2635,2632,2626,2620,2615,2609,2600,2592,2584,2576,2566,2558,2551,2548,2548,2553,2563,2579,2597,2619,2643,2670,2694,2717,2737,2754,2765,2773,2775,2774,2773,2770,2765,2760,2752,2744,2738,2731,2723,2716,2710,2703,2698,2693,2690,2687,2684,2681,2677,2673,2668,2661,2653,2643,2633,2624,2615,2603,2593,2582,2572,2562,2555,2550,2549,2549,2555,2565,2581,2600,2625,2650,2677,2703,2729,2751,2771,2784,2797,2803,2807,2806,2807,2805,2804,2800,2797,2791,2787,2780,2776,2770,2766,2761,2757,2751,2747,2741,2739,2734,2730,2724,2718,2709,2700,2689,2679,2666,2657,2645,2635,2625,2616,2602,2592,2582,2573,2567,2565,2566,2575,2587,2604,2625,2650,2675,2701,2726,2746,2764,2777,2783,2788,2787,2785,2779,2773,2764,2757,2749,2740,2731,2724,2716,2710,2703,2700,2696,2694,2693,2692,2690,2689,2685,2683,2679,2673,2665,2657,2647,2637,2628,2620,2611,2602,2593,2584,2580,2578,2581,2589,2600,2616,2635,2655,2677,2700,2720,2736,2750,2760,2763,2763,2760,2755,2749,2741,2734,2726,2718,2708,2699,2692,2685,2678,2672,2666,2661,2657,2654,2651,2649,2646,2643,2640,2636,2631,2625,2619,2612,2604,2597,2591,2584,2579,2572,2565,2561,2559,2561,2567,2580,2595,2614,2637,2660,2685,2710,2732,2752,2768,2780,2784,2786,2785,2783,2778,2773,2767,2761,2755,2748,2742,2736,2730,2724,2719,2715,2710,2706,2703,2700,2696,2693,2690,2684,2678,2670,2662,2652,2644,2635,2627,2618,2608,2599,2591,2584,2578,2574,2575,2578,2588,2601,2620,2641,2664,2689,2713,2736,2755,2773,2785,2793,2795,2797,2796,2793,2788,2783,2777,2772,2765,2759,2754,2750,2745,2740,2733,2727,2722,2717,2713,2709,2705,2698,2691,2682,2672,2665,2657,2648,2639,2630,2620,2611,2603,2597,2589,2582,2576,2572,2571,2574,2581,2594,2611,2628,2649,2673,2696,2719,2740,2759,2773,2783,2789,2792,2795,2795,2795,2793,2791,2790,2786,2782,2776,2769,2761,2752,2742,2732,2723,2714,2705,2698,2691,2685,2679,2673,2666,2660,2652,2644,2634,2624,2613,2604,2593,2583,2573,2565,2554,2547,2541,2534,2529,2531,2535,2543,2557,2576,2597,2623,2649,2677,2704,2731,2753,2771,2786,2797,2801,2804,2803,2801,2797,2792,2787,2784,2778,2772,2766,2758,2751,2743,2735,2729,2723,2717,2710,2705,2698,2692,2687,2681,2672,2665,2656,2646,2636,2625,2615,2605,2594,2584,2572,2562,2551,2542,2531,2522,2513,2509,2507,2513,2525,2544,2568,2596,2626,2659,2690,2722,2750,2773,2790,2802,2810,2813,2812,2809,2804,2800,2794,2788,2782,2776,2769,2762,2753,2745,2738,2733,2728,2725,2721,2719,2717,2713,2708,2702,2696,2689,2677,2668,2657,2648,2639,2632,2626,2622,2619,2615,2613,2612,2609,2606,2601,2596,2591,2589,2589,2594,2606,2622,2642,2666,2691,2716,2742,2767,2789,2806,2816,2819,2817,2809,2798,2786,2774,2759,2745,2729,2715,2702,2691,2681,2675,2668,2666,2664,2664,2665,2669,2672,2676,2678,2680,2679,2679,2674,2670,2664,2659,2652,2644,2634,2626,2614,2608,2598,2593,2588,2589,2592,2603,2619,2643,2667,2697,2724,2755,2782,2810,2831,2848,2859,2865,2865,2864,2859,2854,2845,2838,2828,2819,2810,2802,2792,2786,2777,2772,2765,2761,2757,2754,2750,2746,2742,2737,2730,2723,2713,2702,2690,2678,2664,2651,2638,2626,2613,2603,2591,2583,2576,2574,2576,2585,2598,2615,2636,2662,2686,2713,2738,2761,2781,2797,2806,2811,2810,2807,2801,2798,2790,2785,2779,2772,2766,2761,2755,2750,2746,2742,2735,2731,2728,2725,2722,2718,2714,2710,2707,2700,2694,2688,2679,2670,2661,2652,2642,2632,2622,2610,2600,2589,2579,2570,2564,2562,2567,2576,2592,2612,2637,2662,2689,2717,2743,2766,2785,2799,2808,2812,2813,2812,2810,2805,2800,2792,2786,2777,2768,2756,2746,2733,2722,2710,2699,2691,2684,2675,2670,2662,2657,2649,2643,2634,2626,2616,2607,2597,2590,2581,2574,2566,2561,2552,2545,2540,2533,2528,2529,2532,2541,2555,2575,2597,2625,2653,2682,2710,2739,2761,2782,2795,2806,2810,2812,2812,2810,2806,2801,2792,2785,2774,2766,2754,2746,2737,2730,2723,2719,2716,2715,2714,2714,2711,2708,2702,2695,2684,2676,2661,2649,2634,2620,2606,2596,2585,2575,2566,2557,2548,2541,2534,2534,2534,2541,2550,2567,2588,2614,2642,2673,2703,2734,2763,2790,2810,2826,2837,2845,2848,2850,2848,2846,2841,2834,2828,2821,2812,2803,2793,2782,2774,2768,2763,2760,2758,2755,2754,2754,2754,2753,2750,2743,2735,2725,2714,2702,2691,2678,2667,2654,2642,2631,2622,2612,2604,2596,2592,2588,2592,2597,2610,2626,2647,2669,2695,2719,2746,2769,2791,2806,2818,2822,2823,2817,2813,2804,2797,2785,2777,2765,2756,2746,2740,2731,2727,2719,2715,2709,2704,2698,2694,2686,2679,2670,2664,2653,2645,2634,2624,2614,2605,2597,2592,2585,2582,2576,2574,2569,2571,2572,2579,2589,2605,2621,2645,2666,2692,2716,2739,2757,2777,2787,2798,2799,2798,2791,2785,2775,2765,2755,2746,2734,2727,2720,2714,2709,2707,2703,2706,2703,2705,2702,2700,2696,2691,2685,2677,2666,2656,2642,2632,2619,2609,2597,2586,2573,2563,2554,2548,2543,2545,2550,2561,2577,2598,2621,2648,2674,2701,2725,2747,2762,2774,2780,2784,2784,2781,2778,2773,2765,2757,2748,2740,2733,2724,2716,2706,2699,2691,2683,2679,2676,2672,2667,2662,2656,2649,2643,2634,2626,2617,2607,2597,2588,2578,2568,2559,2552,2545,2544,2546,2554,2565,2584,2608,2636,2665,2696,2726,2755,2779,2801,2815,2828,2833,2835,2833,2830,2822,2816,2806,2797,2784,2774,2760,2750,2736,2726,2715,2708,2700,2694,2689,2686,2679,2675,2667,2663,2654,2647,2637,2629,2618,2610,2600,2593,2583,2579,2571,2569,2569,2576,2587,2604,2624,2649,2676,2706,2733,2762,2784,2805,2816,2827,2828,2827,2821,2817,2806,2797,2784,2773,2758,2743,2726,2711,2692,2675,2657,2644,2631,2625,2619,2619,2618,2622,2624,2627,2629,2631,2630,2628,2621,2616,2607,2599,2590,2583,2574,2569,2566,2566,2569,2580,2595,2614,2637,2662,2690,2721,2748,2774,2797,2814,2826,2835,2839,2841,2841,2838,2834,2831,2827,2821,2816,2810,2803,2796,2787,2777,2768,2758,2749,2740,2732,2724,2717,2708,2702,2694,2684,2674,2665,2655,2646,2635,2627,2618,2611,2603,2597,2590,2586,2583,2586,2592,2604,2619,2638,2659,2684,2708,2734,2758,2781,2795,2809,2814,2819,2817,2814,2806,2797,2785,2774,2760,2749,2734,2721,2708,2698,2687,2681,2673,2671,2667,2668,2667,2667,2664,2662,2657,2652,2643,2636,2624,2614,2601,2590,2578,2570,2558,2550,2540,2533,2524,2522,2520,2526,2536,2552,2571,2598,2625,2658,2689,2722,2749,2775,2794,2809,2817,2824,2825,2825,2822,2819,2813,2806,2798,2792,2781,2772,2759,2749,2736,2727,2716,2710,2705,2703,2699,2697,2692,2689,2684,2678,2668,2659,2648,2638,2625,2615,2604,2595,2586,2578,2569,2563,2556,2550,2545,2545,2551,2562,2577,2596,2619,2645,2673,2700,2726,2749,2766,2778,2783,2785,2782,2776,2769,2760,2752,2744,2737,2730,2723,2716,2711,2707,2704,2701,2700,2699,2699,2697,2697,2695,2694,2689,2684,2676,2668,2658,2650,2638,2628,2618,2611,2602,2596,2588,2583,2576,2574,2573,2579,2588,2605,2624,2648,2673,2702,2729,2756,2778,2799,2813,2823,2827,2828,2824,2821,2813,2807,2797,2789,2777,2767,2755,2745,2731,2723,2713,2706,2697,2692,2687,2684,2678,2674,2667,2662,2652,2644,2634,2625,2614,2605,2595,2589,2578,2571,2561,2555,2547,2544,2541,2547,2556,2572,2590,2615,2640,2670,2697,2727,2751,2775,2791,2804,2810,2816,2816,2816,2814,2810,2803,2797,2788,2780,2769,2760,2749,2741,2733,2725,2718,2714,2709,2704,2697,2691,2684,2675,2664,2653,2641,2630,2618,2607,2596,2585,2575,2565,2555,2546,2538,2531,2527,2529,2536,2548,2566,2590,2617,2648,2680,2711,2742,2768,2789,2805,2816,2822,2825,2824,2820,2814,2808,2801,2794,2785,2775,2765,2755,2744,2734,2724,2716,2707,2699,2690,2685,2677,2669,2660,2651,2642,2631,2619,2608,2596,2586,2575,2568,2558,2549,2540,2532,2523,2518,2512,2513,2518,2530,2546,2569,2597,2630,2664,2699,2733,2764,2791,2813,2828,2839,2845,2847,2844,2841,2834,2828,2819,2810,2800,2790,2777,2765,2751,2739,2722,2710,2695,2682,2668,2658,2645,2636,2625,2616,2606,2598,2590,2585,2580,2578,2572,2569,2564,2560,2554,2548,2540,2532,2525,2522,2521,2529,2540,2559,2582,2610,2640,2673,2705,2739,2765,2788,2803,2815,2820,2822,2820,2816,2811,2805,2797,2790,2783,2776,2766,2757,2747,2736,2725,2716,2707,2698,2691,2686,2681,2676,2670,2665,2660,2653,2644,2635,2626,2615,2603,2594,2583,2574,2565,2556,2549,2544,2539,2540,2546,2556,2573,2597,2625,2657,2692,2728,2765,2798,2828,2853,2872,2884,2891,2893,2893,2890,2886,2881,2877,2872,2867,2860,2854,2846,2837,2829,2821,2811,2801,2793,2786,2776,2768,2758,2751,2740,2728,2715,2704,2690,2676,2661,2649,2635,2623,2609,2598,2588,2579,2569,2561,2552,2550,2548,2553,2561,2576,2595,2619,2646,2676,2707,2740,2768,2796,2817,2835,2847,2856,2859,2861,2858,2855,2849,2842,2834,2828,2820,2814,2804,2796,2786,2780,2771,2765,2757,2752,2745,2739,2731,2726,2718,2711,2700,2691,2681,2672,2661,2650,2640,2630,2618,2609,2600,2590,2579,2572,2566,2564,2568,2577,2592,2613,2635,2661,2689,2719,2747,2773,2794,2810,2820,2825,2824,2819,2812,2802,2790,2777,2763,2747,2732,2717,2705,2694,2687,2679,2675,2673,2671,2671,2671,2670,2668,2663,2658,2650,2640,2627,2615,2603,2590,2578,2566,2555,2545,2536,2529,2525,2527,2533,2544,2560,2581,2606,2633,2662,2691,2720,2746,2765,2781,2789,2795,2795,2792,2787,2778,2769,2759,2747,2738,2729,2722,2714,2710,2706,2703,2701,2700,2699,2697,2695,2693,2684,2678,2668,2656,2643,2632,2619,2607,2597,2586,2576,2569,2562,2558,2559,2564,2574,2591,2611,2636,2664,2694,2724,2754,2780,2802,2820,2831,2837,2839,2836,2833,2823,2814,2804,2793,2782,2770,2759,2748,2738,2730,2720,2713,2707,2702,2699,2695,2692,2686,2681,2672,2663,2654,2644,2633,2623,2612,2601,2591,2581,2572,2565,2561,2562,2568,2578,2595,2619,2647,2676,2708,2740,2772,2798,2821,2839,2851,2856,2857,2854,2849,2843,2836,2828,2820,2811,2803,2794,2785,2776,2767,2759,2752,2745,2739,2735,2728,2721,2714,2706,2697,2688,2677,2664,2650,2638,2624,2611,2598,2585,2572,2560,2551,2546,2548,2554,2567,2585,2607,2634,2664,2695,2725,2753,2779,2798,2811,2820,2824,2824,2823,2818,2813,2805,2796,2786,2776,2763,2750,2736,2722,2709,2699,2688,2682,2676,2672,2667,2665,2662,2659,2654,2647,2638,2628,2615,2602,2588,2576,2562,2550,2539,2531,2526,2526,2532,2544,2561,2584,2608,2637,2668,2697,2725,2752,2773,2790,2803,2809,2813,2814,2811,2807,2801,2795,2788,2779,2770,2760,2749,2737,2724,2715,2704,2696,2689,2684,2678,2674,2669,2665,2659,2652,2644,2637,2627,2616,2607,2598,2589,2581,2572,2565,2558,2551,2544,2541,2540,2543,2552,2568,2590,2617,2646,2680,2714,2748,2780,2808,2830,2847,2857,2861,2863,2861,2855,2849,2842,2833,2825,2817,2808,2800,2791,2781,2772,2764,2756,2749,2743,2738,2734,2729,2723,2717,2708,2699,2689,2677,2664,2651,2636,2622,2610,2595,2583,2570,2559,2549,2543,2541,2545,2553,2569,2589,2615,2644,2675,2705,2736,2762,2784,2799,2810,2811,2811,2805,2795,2784,2773,2760,2747,2734,2723,2711,2701,2692,2685,2678,2673,2667,2665,2663,2664,2662,2660,2657,2653,2648,2643,2636,2629,2620,2611,2601,2591,2581,2571,2563,2556,2553,2556,2564,2582,2600,2624,2652,2682,2711,2740,2766,2788,2803,2815,2818,2818,2814,2808,2798,2788,2776,2765,2755,2745,2734,2725,2718,2713,2708,2706,2702,2701,2699,2696,2690,2685,2677,2668,2656,2645,2630,2618,2605,2593,2582,2572,2561,2553,2547,2544,2546,2552,2563,2580,2601,2628,2658,2691,2723,2754,2783,2808,2825,2838,2845,2847,2844,2838,2831,2823,2813,2801,2789,2777,2767,2758,2749,2741,2734,2728,2723,2720,2717,2715,2713,2707,2701,2693,2684,2673,2661,2649,2638,2624,2612,2599,2587,2576,2567,2558,2555,2557,2565,2579,2600,2628,2659,2692,2729,2764,2798,2824,2848,2864,2873,2877,2876,2870,2862,2849,2837,2823,2809,2792,2778,2762,2750,2738,2728,2719,2714,2710,2710,2708,2709,2705,2703,2695,2688,2675,2661,2643,2627,2606,2589,2567,2551,2534,2522,2507,2500,2494,2497,2503,2519,2538,2566,2596,2632,2668,2708,2742,2777,2803,2825,2838,2849,2852,2851,2845,2837,2825,2816,2803,2793,2780,2770,2758,2749,2738,2730,2722,2716,2709,2703,2697,2692,2683,2675,2664,2655,2643,2631,2619,2610,2598,2586,2574,2563,2552,2541,2531,2524,2516,2514,2515,2526,2542,2567,2595,2629,2664,2701,2738,2773,2803,2828,2848,2860,2868,2873,2874,2873,2871,2868,2864,2858,2852,2845,2837,2827,2817,2803,2791,2779,2765,2751,2738,2725,2714,2702,2690,2676,2665,2651,2638,2624,2611,2598,2586,2573,2562,2551,2542,2529,2521,2511,2503,2498,2500,2504,2517,2533,2554,2580,2612,2644,2681,2714,2746,2772,2797,2813,2826,2834,2840,2839,2837,2832,2826,2817,2808,2795,2783,2768,2756,2743,2732,2720,2712,2702,2697,2690,2687,2681,2677,2670,2663,2653,0,2,0
