1,2,3,4,5,6,7,8,9,10,11,12,13,14,15,16,17,18,19,20,21,22,23,24,25,26,27,28,29,30,31,32,33,34,35,36,37,38,39,40,41,42,43,44,45,46,47,48,49,50,51,52,53,54,55,56,57,58,59,60,61,62,63,64,65,66,67,68,69,70,71,72,73,74,75,76,77,78,79,80,81,82,83,84,85,86,87,88,89,90,91,92,93,94,95,96,97,98,99,100,101,102,103,104,105,106,107,108,109,110,111,112,113,114,115,116,117,118,119,120,121,122,123,124,125,126,127,128,129,130,131,132,133,134,135,136,137,138,139,140,141,142,143,144,145,146,147,148,149,150,151,152,153,154,155,156,157,158,159,160,161,162,163,164,165,166,167,168,169,170,171,172,173,174,175,176,177,178,179,180,181,182,183,184,185,186,187,188,189,190,191,192,193,194,195,196,197,198,199,200,201,202,203,204,205,206,207,208,209,210,211,212,213,214,215,216,217,218,219,220,221,222,223,224,225,226,227,228,229,230,231,232,233,234,235,236,237,238,239,240,241,242,243,244,245,246,247,248,249,250,251,252,253,254,255,256,257,258,259,260,261,262,263,264,265,266,267,268,269,270,271,272,273,274,275,276,277,278,279,280,281,282,283,284,285,286,287,288,289,290,291,292,293,294,295,296,297,298,299,300,301,302,303,304,305,306,307,308,309,310,311,312,313,314,315,316,317,318,319,320,321,322,323,324,325,326,327,328,329,330,331,332,333,334,335,336,337,338,339,340,341,342,343,344,345,346,347,348,349,350,351,352,353,354,355,356,357,358,359,360,361,362,363,364,365,366,367,368,369,370,371,372,373,374,375,376,377,378,379,380,381,382,383,384,385,386,387,388,389,390,391,392,393,394,395,396,397,398,399,400,401,402,403,404,405,406,407,408,409,410,411,412,413,414,415,416,417,418,419,420,421,422,423,424,425,426,427,428,429,430,431,432,433,434,435,436,437,438,439,440,441,442,443,444,445,446,447,448,449,450,451,452,453,454,455,456,457,458,459,460,461,462,463,464,465,466,467,468,469,470,471,472,473,474,475,476,477,478,479,480,481,482,483,484,485,486,487,488,489,490,491,492,493,494,495,496,497,498,499,500,501,502,503,504,505,506,507,508,509,510,511,512,513,514,515,516,517,518,519,520,521,522,523,524,525,526,527,528,529,530,531,532,533,534,535,536,537,538,539,540,541,542,543,544,545,546,547,548,549,550,551,552,553,554,555,556,557,558,559,560,561,562,563,564,565,566,567,568,569,570,571,572,573,574,575,576,577,578,579,580,581,582,583,584,585,586,587,588,589,590,591,592,593,594,595,596,597,598,599,600,601,602,603,604,605,606,607,608,609,610,611,612,613,614,615,616,617,618,619,620,621,622,623,624,625,626,627,628,629,630,631,632,633,634,635,636,637,638,639,640,641,642,643,644,645,646,647,648,649,650,651,652,653,654,655,656,657,658,659,660,661,662,663,664,665,666,667,668,669,670,671,672,673,674,675,676,677,678,679,680,681,682,683,684,685,686,687,688,689,690,691,692,693,694,695,696,697,698,699,700,701,702,703,704,705,706,707,708,709,710,711,712,713,714,715,716,717,718,719,720,721,722,723,724,725,726,727,728,729,730,731,732,733,734,735,736,737,738,739,740,741,742,743,744,745,746,747,748,749,750,751,752,753,754,755,756,757,758,759,760,761,762,763,764,765,766,767,768,769,770,771,772,773,774,775,776,777,778,779,780,781,782,783,784,785,786,787,788,789,790,791,792,793,794,795,796,797,798,799,800,801,802,803,804,805,806,807,808,809,810,811,812,813,814,815,816,817,818,819,820,821,822,823,824,825,826,827,828,829,830,831,832,833,834,835,836,837,838,839,840,841,842,843,844,845,846,847,848,849,850,851,852,853,854,855,856,857,858,859,860,861,862,863,864,865,866,867,868,869,870,871,872,873,874,875,876,877,878,879,880,881,882,883,884,885,886,887,888,889,890,891,892,893,894,895,896,897,898,899,900,901,902,903,904,905,906,907,908,909,910,911,912,913,914,915,916,917,918,919,920,921,922,923,924,925,926,927,928,929,930,931,932,933,934,935,936,937,938,939,940,941,942,943,944,945,946,947,948,949,950,951,952,953,954,955,956,957,958,959,960,961,962,963,964,965,966,967,968,969,970,971,972,973,974,975,976,977,978,979,980,981,982,983,984,985,986,987,988,989,990,991,992,993,994,995,996,997,998,999,1000,1001,1002,1003,1004,1005,1006,1007,1008,1009,1010,1011,1012,1013,1014,1015,1016,1017,1018,1019,1020,1021,1022,1023,1024,1025,1026,1027,1028,1029,1030,1031,1032,1033,1034,1035,1036,1037,1038,1039,1040,1041,1042,1043,1044,1045,1046,1047,1048,1049,1050,1051,1052,1053,1054,1055,1056,1057,1058,1059,1060,1061,1062,1063,1064,1065,1066,1067,1068,1069,1070,1071,1072,1073,1074,1075,1076,1077,1078,1079,1080,1081,1082,1083,1084,1085,1086,1087,1088,1089,1090,1091,1092,1093,1094,1095,1096,1097,1098,1099,1100,1101,1102,1103,1104,1105,1106,1107,1108,1109,1110,1111,1112,1113,1114,1115,1116,1117,1118,1119,1120,1121,1122,1123,1124,1125,1126,1127,1128,1129,1130,1131,1132,1133,1134,1135,1136,1137,1138,1139,1140,1141,1142,1143,1144,1145,1146,1147,1148,1149,1150,1151,1152,1153,1154,1155,1156,1157,1158,1159,1160,1161,1162,1163,1164,1165,1166,1167,1168,1169,1170,1171,1172,1173,1174,1175,1176,1177,1178,1179,1180,1181,1182,1183,1184,1185,1186,1187,1188,1189,1190,1191,1192,1193,1194,1195,1196,1197,1198,1199,1200,1201,1202,1203,1204,1205,1206,1207,1208,1209,1210,1211,1212,1213,1214,1215,1216,1217,1218,1219,1220,1221,1222,1223,1224,1225,1226,1227,1228,1229,1230,1231,1232,1233,1234,1235,1236,1237,1238,1239,1240,1241,1242,1243,1244,1245,1246,1247,1248,1249,1250,1251,1252,1253,1254,1255,1256,1257,1258,1259,1260,1261,1262,1263,1264,1265,1266,1267,1268,1269,1270,1271,1272,1273,1274,1275,1276,1277,1278,1279,1280,1281,1282,1283,1284,1285,1286,1287,1288,1289,1290,1291,1292,1293,1294,1295,1296,1297,1298,1299,1300,1301,1302,1303,1304,1305,1306,1307,1308,1309,1310,1311,1312,1313,1314,1315,1316,1317,1318,1319,1320,1321,1322,1323,1324,1325,1326,1327,1328,1329,1330,1331,1332,1333,1334,1335,1336,1337,1338,1339,1340,1341,1342,1343,1344,1345,1346,1347,1348,1349,1350,1351,1352,1353,1354,1355,1356,1357,1358,1359,1360,1361,1362,1363,1364,1365,1366,1367,1368,1369,1370,1371,1372,1373,1374,1375,1376,1377,1378,1379,1380,1381,1382,1383,1384,1385,1386,1387,1388,1389,1390,1391,1392,1393,1394,1395,1396,1397,1398,1399,1400,1401,1402,1403,1404,1405,1406,1407,1408,1409,1410,1411,1412,1413,1414,1415,1416,1417,1418,1419,1420,1421,1422,1423,1424,1425,1426,1427,1428,1429,1430,1431,1432,1433,1434,1435,1436,1437,1438,1439,1440,1441,1442,1443,1444,1445,1446,1447,1448,1449,1450,1451,1452,1453,1454,1455,1456,1457,1458,1459,1460,1461,1462,1463,1464,1465,1466,1467,1468,1469,1470,1471,1472,1473,1474,1475,1476,1477,1478,1479,1480,1481,1482,1483,1484,1485,1486,1487,1488,1489,1490,1491,1492,1493,1494,1495,1496,1497,1498,1499,1500,1501,1502,1503,1504,1505,1506,1507,1508,1509,1510,1511,1512,1513,1514,1515,1516,1517,1518,1519,1520,1521,1522,1523,1524,1525,1526,1527,1528,1529,1530,1531,1532,1533,1534,1535,1536,1537,1538,1539,1540,1541,1542,1543,1544,1545,1546,1547,1548,1549,1550,1551,1552,1553,1554,1555,1556,1557,1558,1559,1560,1561,1562,1563,1564,1565,1566,1567,1568,1569,1570,1571,1572,1573,1574,1575,1576,1577,1578,1579,1580,1581,1582,1583,1584,1585,1586,1587,1588,1589,1590,1591,1592,1593,1594,1595,1596,1597,1598,1599,1600,1601,1602,1603,1604,1605,1606,1607,1608,1609,1610,1611,1612,1613,1614,1615,1616,1617,1618,1619,1620,1621,1622,1623,1624,1625,1626,1627,1628,1629,1630,1631,1632,1633,1634,1635,1636,1637,1638,1639,1640,1641,1642,1643,1644,1645,1646,1647,1648,1649,1650,1651,1652,1653,1654,1655,1656,1657,1658,1659,1660,1661,1662,1663,1664,1665,1666,1667,1668,1669,1670,1671,1672,1673,1674,1675,1676,1677,1678,1679,1680,1681,1682,1683,1684,1685,1686,1687,1688,1689,1690,1691,1692,1693,1694,1695,1696,1697,1698,1699,1700,1701,1702,1703,1704,1705,1706,1707,1708,1709,1710,1711,1712,1713,1714,1715,1716,1717,1718,1719,1720,1721,1722,1723,1724,1725,1726,1727,1728,1729,1730,1731,1732,1733,1734,1735,1736,1737,1738,1739,1740,1741,1742,1743,1744,1745,1746,1747,1748,1749,1750,1751,1752,1753,1754,1755,1756,1757,1758,1759,1760,1761,1762,1763,1764,1765,1766,1767,1768,1769,1770,1771,1772,1773,1774,1775,1776,1777,1778,1779,1780,1781,1782,1783,1784,1785,1786,1787,1788,1789,1790,1791,1792,1793,1794,1795,1796,1797,1798,1799,1800,1801,1802,1803,1804,1805,1806,1807,1808,1809,1810,1811,1812,1813,1814,1815,1816,1817,1818,1819,1820,1821,1822,1823,1824,1825,1826,1827,1828,1829,1830,1831,1832,1833,1834,1835,1836,1837,1838,1839,1840,1841,1842,1843,1844,1845,1846,1847,1848,1849,1850,1851,1852,1853,1854,1855,1856,1857,1858,1859,1860,1861,1862,1863,1864,1865,1866,1867,1868,1869,1870,1871,1872,1873,1874,1875,1876,1877,1878,1879,1880,1881,1882,1883,1884,1885,1886,1887,1888,1889,1890,1891,1892,1893,1894,1895,1896,1897,1898,1899,1900,1901,1902,1903,1904,1905,1906,1907,1908,1909,1910,1911,1912,1913,1914,1915,1916,1917,1918,1919,1920,1921,1922,1923,1924,1925,1926,1927,1928,1929,1930,1931,1932,1933,1934,1935,1936,1937,1938,1939,1940,1941,1942,1943,1944,1945,1946,1947,1948,1949,1950,1951,1952,1953,1954,1955,1956,1957,1958,1959,1960,1961,1962,1963,1964,1965,1966,1967,1968,1969,1970,1971,1972,1973,1974,1975,1976,1977,1978,1979,1980,1981,1982,1983,1984,1985,1986,1987,1988,1989,1990,1991,1992,1993,1994,1995,1996,1997,1998,1999,2000,2001,2002,2003,2004,2005,2006,2007,2008,2009,2010,2011,2012,2013,2014,2015,2016,2017,2018,2019,2020,2021,2022,2023,2024,2025,2026,2027,2028,2029,2030,2031,2032,2033,2034,2035,2036,2037,2038,2039,2040,2041,2042,2043,2044,2045,2046,2047,2048,2049,2050,2051,2052,2053,2054,2055,2056,2057,2058,2059,2060,2061,2062,2063,2064,2065,2066,2067,2068,2069,2070,2071,2072,2073,2074,2075,2076,2077,2078,2079,2080,2081,2082,2083,2084,2085,2086,2087,2088,2089,2090,2091,2092,2093,2094,2095,2096,2097,2098,2099,2100,2101,2102,2103,2104,2105,2106,2107,2108,2109,2110,2111,2112,2113,2114,2115,2116,2117,2118,2119,2120,2121,2122,2123,2124,2125,2126,2127,2128,2129,2130,2131,2132,2133,2134,2135,2136,2137,2138,2139,2140,2141,2142,2143,2144,2145,2146,2147,2148,2149,2150,2151,2152,2153,2154,2155,2156,2157,2158,2159,2160,2161,2162,2163,2164,2165,2166,2167,2168,2169,2170,2171,2172,2173,2174,2175,2176,2177,2178,2179,2180,2181,2182,2183,2184,2185,2186,2187,2188,2189,2190,2191,2192,2193,2194,2195,2196,2197,2198,2199,2200,2201,2202,2203,2204,2205,2206,2207,2208,2209,2210,2211,2212,2213,2214,2215,2216,2217,2218,2219,2220,2221,2222,2223,2224,2225,2226,2227,2228,2229,2230,2231,2232,2233,2234,2235,2236,2237,2238,2239,2240,2241,2242,2243,2244,2245,2246,2247,2248,2249,2250,2251,2252,2253,2254,2255,2256,2257,2258,2259,2260,2261,2262,2263,2264,2265,2266,2267,2268,2269,2270,2271,2272,2273,2274,2275,2276,2277,2278,2279,2280,2281,2282,2283,2284,2285,2286,2287,2288,2289,2290,2291,2292,2293,2294,2295,2296,2297,2298,2299,2300,2301,2302,2303,2304,2305,2306,2307,2308,2309,2310,2311,2312,2313,2314,2315,2316,2317,2318,2319,2320,2321,2322,2323,2324,2325,2326,2327,2328,2329,2330,2331,2332,2333,2334,2335,2336,2337,2338,2339,2340,2341,2342,2343,2344,2345,2346,2347,2348,2349,2350,2351,2352,2353,2354,2355,2356,2357,2358,2359,2360,2361,2362,2363,2364,2365,2366,2367,2368,2369,2370,2371,2372,2373,2374,2375,2376,2377,2378,2379,2380,2381,2382,2383,2384,2385,2386,2387,2388,2389,2390,2391,2392,2393,2394,2395,2396,2397,2398,2399,2400,2401,2402,2403,2404,2405,2406,2407,2408,2409,2410,2411,2412,2413,2414,2415,2416,2417,2418,2419,2420,2421,2422,2423,2424,2425,2426,2427,2428,2429,2430,2431,2432,2433,2434,2435,2436,2437,2438,2439,2440,2441,2442,2443,2444,2445,2446,2447,2448,2449,2450,2451,2452,2453,2454,2455,2456,2457,2458,2459,2460,2461,2462,2463,2464,2465,2466,2467,2468,2469,2470,2471,2472,2473,2474,2475,2476,2477,2478,2479,2480,2481,2482,2483,2484,2485,2486,2487,2488,2489,2490,2491,2492,2493,2494,2495,2496,2497,2498,2499,2500,2501,2502,2503,2504,2505,2506,2507,2508,2509,2510,2511,2512,2513,2514,2515,2516,2517,2518,2519,2520,2521,2522,2523,2524,2525,2526,2527,2528,2529,2530,2531,2532,2533,2534,2535,2536,2537,2538,2539,2540,2541,2542,2543,2544,2545,2546,2547,2548,2549,2550,2551,2552,2553,2554,2555,2556,2557,2558,2559,2560,2561,2562,2563,2564,2565,2566,2567,2568,2569,2570,2571,2572,2573,2574,2575,2576,2577,2578,2579,2580,2581,2582,2583,2584,2585,2586,2587,2588,2589,2590,2591,2592,2593,2594,2595,2596,2597,2598,2599,2600,2601,2602,2603,2604,2605,2606,2607,2608,2609,2610,2611,2612,2613,2614,2615,2616,2617,2618,2619,2620,2621,2622,2623,2624,2625,2626,2627,2628,2629,2630,2631,2632,2633,2634,2635,2636,2637,2638,2639,2640,2641,2642,2643,2644,2645,2646,2647,2648,2649,2650,2651,2652,2653,2654,2655,2656,2657,2658,2659,2660,2661,2662,2663,2664,2665,2666,2667,2668,2669,2670,2671,2672,2673,2674,2675,2676,2677,2678,2679,2680,2681,2682,2683,2684,2685,2686,2687,2688,2689,2690,2691,2692,2693,2694,2695,2696,2697,2698,2699,2700,2701,2702,2703,2704,2705,2706,2707,2708,2709,2710,2711,2712,2713,2714,2715,2716,2717,2718,2719,2720,2721,2722,2723,2724,2725,2726,2727,2728,2729,2730,2731,2732,2733,2734,2735,2736,2737,2738,2739,2740,2741,2742,2743,2744,2745,2746,2747,2748,2749,2750,2751,2752,2753,2754,2755,2756,2757,2758,2759,2760,2761,2762,2763,2764,2765,2766,2767,2768,2769,2770,2771,2772,2773,2774,2775,2776,2777,2778,2779,2780,2781,2782,2783,2784,2785,2786,2787,2788,2789,2790,2791,2792,2793,2794,2795,2796,2797,2798,2799,2800,2801,2802,2803,2804,2805,2806,2807,2808,2809,2810,2811,2812,2813,2814,2815,2816,2817,2818,2819,2820,2821,2822,2823,2824,2825,2826,2827,2828,2829,2830,2831,2832,2833,2834,2835,2836,2837,2838,2839,2840,2841,2842,2843,2844,2845,2846,2847,2848,2849,2850,2851,2852,2853,2854,2855,2856,2857,2858,2859,2860,2861,2862,2863,2864,2865,2866,2867,2868,2869,2870,2871,2872,2873,2874,2875,2876,2877,2878,2879,2880,2881,2882,2883,2884,2885,2886,2887,2888,2889,2890,2891,2892,2893,2894,2895,2896,2897,2898,2899,2900,2901,2902,2903,2904,2905,2906,2907,2908,2909,2910,2911,2912,2913,2914,2915,2916,2917,2918,2919,2920,2921,2922,2923,2924,2925,2926,2927,2928,2929,2930,2931,2932,2933,2934,2935,2936,2937,2938,2939,2940,2941,2942,2943,2944,2945,2946,2947,2948,2949,2950,2951,2952,2953,2954,2955,2956,2957,2958,2959,2960,2961,2962,2963,2964,2965,2966,2967,2968,2969,2970,2971,2972,2973,2974,2975,2976,2977,2978,2979,2980,2981,2982,2983,2984,2985,2986,2987,2988,2989,2990,2991,2992,2993,2994,2995,2996,2997,2998,2999,3000,stress_score,anxiety_score,depression_score
2545,2566,2589,2618,2647,2681,2713,2747,2775,2804,2825,2844,2856,2868,2875,2881,2884,2889,2890,2894,2892,2890,2884,2881,2874,2866,2856,2847,2835,2826,2813,2804,2794,2786,2775,2767,2757,2748,2735,2726,2714,2704,2691,2681,2669,2658,2646,2636,2626,2618,2607,2599,2590,2582,2573,2566,2558,2551,2542,2534,2527,2523,2520,2523,2530,2543,2561,2585,2613,2645,2680,2716,2752,2788,2819,2847,2870,2889,2904,2916,2924,2931,2936,2939,2942,2942,2943,2940,2934,2927,2919,2909,2898,2888,2876,2862,2849,2836,2826,2813,2802,2788,2776,2762,2749,2734,2720,2703,2687,2670,2655,2638,2623,2606,2592,2575,2561,2546,2535,2520,2508,2495,2485,2471,2462,2449,2440,2430,2420,2409,2402,2392,2384,2375,2369,2359,2353,2345,2339,2331,2327,2324,2329,2338,2356,2381,2415,2453,2497,2543,2594,2643,2696,2738,2778,2810,2836,2856,2874,2885,2896,2903,2910,2914,2921,2923,2926,2924,2922,2915,2909,2899,2888,2875,2864,2849,2837,2823,2813,2799,2790,2778,2768,2758,2747,2735,2724,2711,2700,2686,2673,2659,2648,2635,2624,2612,2601,2589,2580,2570,2562,2552,2545,2537,2528,2519,2511,2503,2497,2491,2488,2489,2496,2509,2526,2549,2576,2606,2642,2676,2712,2747,2777,2804,2826,2843,2857,2868,2877,2882,2885,2888,2890,2891,2889,2887,2882,2875,2866,2856,2846,2837,2824,2813,2801,2791,2781,2771,2761,2753,2742,2732,2721,2710,2697,2686,2672,2660,2645,2633,2620,2608,2594,2583,2572,2561,2549,2541,2529,2522,2511,2504,2494,2486,2477,2471,2462,2455,2447,2442,2433,2427,2417,2412,2405,2406,2407,2418,2432,2457,2486,2523,2561,2606,2650,2699,2740,2782,2816,2846,2868,2888,2901,2914,2922,2930,2936,2943,2946,2950,2949,2949,2943,2939,2929,2922,2910,2899,2884,2873,2859,2848,2834,2824,2810,2799,2786,2776,2762,2752,2737,2725,2711,2698,2683,2671,2656,2643,2629,2618,2603,2592,2579,2569,2559,2549,2539,2531,2521,2512,2502,2495,2484,2477,2468,2461,2451,2442,2434,2426,2419,2413,2405,2399,2395,2394,2398,2411,2431,2457,2490,2528,2569,2615,2664,2713,2757,2797,2832,2859,2881,2898,2910,2920,2927,2932,2937,2941,2944,2946,2946,2942,2938,2931,2923,2912,2902,2889,2877,2864,2852,2840,2829,2818,2808,2798,2790,2779,2770,2757,2748,2735,2723,2709,2699,2686,2676,2661,2650,2637,2629,2617,2609,2597,2590,2580,2571,2561,2553,2544,2537,2527,2520,2510,2506,2498,2495,2496,2505,2519,2540,2562,2593,2624,2661,2696,2735,2769,2804,2829,2854,2869,2885,2893,2904,2908,2914,2915,2918,2917,2916,2910,2907,2898,2891,2878,2869,2855,2843,2828,2817,2804,2794,2781,2772,2759,2749,2736,2726,2712,2701,2686,2675,2660,2646,2631,2619,2607,2595,2583,2574,2562,2553,2541,2533,2525,2518,2510,2503,2496,2490,2482,2476,2468,2463,2458,2454,2447,2443,2439,2433,2427,2422,2415,2410,2409,2414,2424,2442,2467,2497,2534,2577,2621,2670,2718,2762,2802,2836,2863,2883,2898,2909,2916,2921,2926,2929,2931,2931,2933,2931,2929,2925,2919,2912,2904,2893,2884,2873,2864,2852,2842,2831,2821,2810,2801,2789,2779,2767,2755,2742,2730,2717,2705,2691,2680,2666,2655,2643,2633,2620,2611,2598,2589,2578,2570,2560,2552,2541,2533,2523,2517,2506,2500,2491,2484,2476,2470,2461,2457,2448,2444,2437,2435,2434,2442,2454,2474,2498,2530,2564,2604,2643,2686,2723,2763,2792,2820,2839,2856,2864,2871,2874,2879,2879,2883,2881,2883,2880,2880,2873,2869,2862,2858,2849,2843,2834,2826,2818,2811,2802,2797,2789,2783,2775,2769,2761,2755,2745,2739,2729,2720,2710,2702,2690,2682,2670,2661,2649,2639,2628,2621,2612,2604,2595,2588,2580,2574,2567,2562,2553,2547,2541,2537,2537,2543,2553,2568,2587,2610,2636,2668,2698,2728,2756,2781,2802,2818,2831,2838,2844,2846,2846,2845,2844,2842,2841,2837,2834,2827,2820,2812,2804,2795,2786,2776,2767,2757,2749,2739,2733,2725,2720,2712,2706,2698,2693,2687,2681,2673,2667,2662,2656,2649,2643,2637,2630,2623,2616,2609,2603,2595,2589,2581,2576,2569,2564,2558,2554,2548,2543,2538,2533,2526,2521,2516,2518,2520,2531,2545,2567,2592,2621,2652,2690,2723,2760,2791,2823,2846,2866,2880,2892,2900,2908,2912,2918,2919,2923,2922,2923,2919,2916,2908,2902,2892,2886,2876,2868,2856,2848,2838,2831,2821,2813,2803,2794,2781,2772,2759,2749,2736,2725,2714,2705,2694,2686,2676,2669,2659,2652,2643,2636,2627,2619,2609,2601,2593,2585,2576,2569,2561,2555,2547,2540,2532,2527,2520,2515,2510,2506,2504,2507,2513,2526,2544,2568,2594,2623,2653,2685,2716,2746,2772,2795,2812,2825,2836,2844,2850,2856,2861,2865,2869,2872,2875,2877,2878,2877,2877,2873,2872,2867,2862,2857,2852,2845,2839,2831,2823,2815,2809,2800,2792,2784,2777,2769,2762,2755,2750,2744,2739,2733,2727,2720,2713,2703,2694,2683,2673,2655,2640,2620,2601,2577,2556,2533,2512,2490,2470,2452,2442,2434,2436,2440,2453,2469,2488,2508,2531,2553,2574,2591,2607,2619,2628,2632,2635,2636,2639,2639,2642,2641,2641,2636,2632,2626,2620,2612,2604,2595,2588,2580,2575,2569,2566,2562,2562,2557,2555,2551,2548,2543,2539,2536,2535,2532,2530,2528,2529,2528,2529,2529,2529,2529,2530,2531,2535,2537,2541,2543,2548,2550,2553,2552,2549,2542,2534,2523,2512,2501,2492,2487,2487,2489,2499,2510,2523,2541,2560,2577,2593,2607,2616,2622,2627,2629,2631,2633,2635,2636,2640,2646,2653,2662,2671,2682,2694,2706,2719,2731,2744,2757,2770,2782,2793,2803,2810,2819,2827,2833,2839,2843,2846,2846,2845,2843,2839,2835,2828,2820,2812,2804,2795,2787,2779,2772,2765,2759,2754,2749,2744,2741,2736,2733,2729,2726,2723,2720,2718,2720,2725,2735,2746,2764,2781,2801,2821,2842,2861,2880,2895,2905,2911,2915,2914,2913,2907,2903,2896,2890,2882,2873,2863,2854,2842,2831,2818,2808,2796,2786,2775,2766,2759,2753,2747,2744,2737,2733,2727,2721,2715,2707,2697,2687,2678,2668,2656,2647,2636,2627,2616,2608,2599,2592,2585,2578,2570,2565,2558,2553,2547,2542,2538,2535,2536,2540,2548,2562,2579,2602,2627,2656,2686,2717,2746,2774,2800,2822,2840,2855,2867,2876,2884,2890,2897,2903,2908,2913,2916,2919,2919,2917,2912,2908,2903,2896,2890,2884,2877,2871,2865,2859,2855,2850,2845,2838,2829,2818,2805,2791,2774,2757,2740,2721,2703,2684,2666,2651,2635,2620,2608,2595,2584,2573,2563,2552,2543,2533,2522,2511,2504,2498,2497,2499,2506,2517,2534,2553,2577,2602,2631,2657,2685,2708,2728,2743,2757,2767,2774,2780,2785,2788,2791,2792,2793,2792,2792,2788,2784,2778,2772,2764,2755,2745,2735,2725,2715,2705,2696,2685,2676,2666,2655,2643,2634,2623,2614,2604,2597,2588,2580,2572,2566,2561,2555,2550,2546,2542,2538,2533,2531,2527,2523,2519,2515,2511,2506,2501,2497,2492,2487,2483,2482,2486,2494,2508,2528,2552,2580,2610,2643,2676,2712,2744,2774,2799,2820,2836,2849,2861,2869,2878,2884,2890,2895,2899,2901,2901,2899,2895,2890,2883,2875,2866,2857,2846,2835,2826,2818,2810,2802,2793,2784,2775,2766,2755,2745,2734,2721,2709,2697,2685,2673,2661,2649,2638,2628,2618,2608,2599,2589,2580,2572,2563,2555,2548,2540,2532,2525,2518,2512,2508,2509,2515,2527,2543,2564,2588,2616,2646,2678,2709,2739,2766,2790,2809,2824,2836,2846,2852,2856,2859,2862,2864,2863,2862,2859,2854,2848,2842,2833,2824,2815,2805,2796,2785,2777,2768,2761,2754,2746,2737,2728,2719,2710,2700,2689,2678,2668,2656,2645,2634,2623,2612,2602,2591,2582,2575,2568,2560,2554,2547,2540,2534,2529,2523,2518,2512,2506,2501,2500,2501,2510,2524,2544,2569,2598,2630,2665,2701,2738,2771,2803,2827,2849,2866,2878,2887,2894,2899,2904,2906,2909,2909,2911,2907,2905,2899,2892,2881,2872,2862,2851,2839,2829,2818,2806,2795,2786,2776,2767,2757,2746,2734,2723,2710,2698,2685,2673,2660,2647,2635,2624,2613,2603,2593,2583,2574,2566,2558,2550,2542,2534,2526,2518,2509,2502,2494,2488,2481,2474,2468,2463,2458,2452,2446,2443,2440,2439,2444,2454,2471,2494,2524,2556,2595,2636,2681,2723,2765,2801,2833,2860,2880,2894,2908,2916,2922,2924,2928,2930,2932,2932,2931,2928,2924,2917,2909,2902,2894,2883,2873,2862,2852,2841,2831,2822,2813,2803,2794,2783,2774,2762,2751,2738,2727,2713,2701,2687,2676,2662,2651,2638,2627,2615,2606,2595,2587,2577,2570,2561,2555,2546,2542,2534,2530,2520,2515,2508,2501,2492,2485,2478,2475,2472,2478,2488,2508,2530,2559,2591,2626,2664,2703,2740,2774,2802,2827,2843,2857,2865,2872,2875,2878,2878,2879,2878,2877,2872,2868,2860,2853,2844,2835,2824,2814,2803,2793,2782,2773,2763,2756,2746,2737,2727,2717,2705,2693,2682,2669,2657,2646,2634,2622,2610,2600,2590,2580,2570,2561,2553,2544,2536,2529,2523,2516,2510,2504,2497,2491,2486,2486,2490,2499,2516,2537,2565,2596,2632,2670,2709,2748,2786,2819,2846,2868,2885,2897,2906,2912,2916,2919,2922,2923,2924,2922,2920,2915,2911,2902,2894,2885,2875,2863,2852,2838,2827,2815,2805,2793,2784,2772,2762,2750,2738,2726,2715,2701,2690,2675,2663,2650,2637,2622,2610,2596,2585,2572,2561,2548,2539,2527,2518,2508,2500,2491,2484,2475,2469,2460,2455,2446,2439,2430,2423,2416,2409,2400,2394,2386,2384,2383,2393,2409,2435,2466,2506,2549,2597,2645,2697,2744,2790,2827,2859,2883,2901,2912,2920,2926,2932,2934,2936,2938,2939,2937,2935,2929,2924,2916,2908,2897,2888,2876,2865,2852,2841,2830,2820,2810,2800,2789,2779,2767,2756,2744,2732,2719,2705,2692,2678,2667,2654,2641,2629,2616,2604,2594,2584,2574,2565,2555,2546,2536,2529,2520,2513,2506,2498,2490,2485,2482,2481,2486,2496,2514,2538,2565,2597,2633,2671,2710,2746,2781,2811,2837,2855,2870,2880,2888,2892,2894,2896,2897,2896,2897,2894,2892,2887,2883,2875,2869,2859,2852,2841,2833,2822,2814,2803,2795,2786,2776,2765,2756,2744,2733,2720,2708,2695,2684,2671,2660,2647,2637,2624,2614,2602,2594,2583,2576,2565,2558,2548,2542,2533,2527,2519,2513,2504,2498,2487,2481,2473,2472,2474,2485,2501,2525,2554,2590,2627,2669,2711,2754,2792,2829,2857,2881,2897,2912,2920,2928,2932,2938,2940,2943,2942,2943,2938,2935,2929,2921,2911,2902,2889,2878,2865,2853,2841,2831,2818,2807,2795,2784,2771,2760,2747,2735,2721,2707,2693,2680,2666,2654,2640,2628,2614,2601,2589,2578,2565,2553,2542,2531,2520,2510,2500,2492,2482,2473,2464,2456,2447,2440,2431,2423,2416,2408,2399,2394,2393,2397,2409,2428,2455,2487,2525,2567,2614,2660,2707,2750,2789,2820,2847,2865,2880,2889,2896,2899,2901,2901,2902,2900,2898,2892,2887,2879,2870,2860,2851,2838,2827,2814,2803,2790,2778,2768,2757,2746,2736,2725,2716,2704,2695,2681,2671,2659,2647,2634,2625,2612,2603,2591,2582,2570,2563,2552,2545,2536,2530,2520,2514,2503,2495,2484,2475,2466,2462,2458,2464,2473,2491,2511,2536,2563,2597,2629,2663,2692,2721,2741,2759,2771,2782,2788,2796,2798,2804,2808,2812,2813,2817,2815,2815,2810,2807,2799,2793,2783,2776,2766,2758,2747,2740,2730,2723,2714,2707,2700,2693,2683,2676,2668,2662,2655,2648,2641,2636,2628,2621,2613,2607,2598,2591,2582,2574,2564,2556,2549,2541,2533,2526,2518,2511,2503,2497,2491,2485,2479,2472,2468,2465,2466,2473,2486,2507,2533,2564,2601,2642,2686,2730,2776,2817,2854,2884,2910,2931,2947,2958,2966,2972,2977,2981,2984,2984,2986,2983,2978,2972,2966,2957,2949,2937,2925,2912,2902,2889,2878,2866,2856,2845,2834,2819,2808,2795,2783,2768,2755,2741,2728,2713,2700,2685,2674,2661,2650,2637,2626,2615,2606,2594,2586,2575,2568,2558,2549,2538,2531,2520,2515,2510,2513,2517,2532,2549,2574,2601,2635,2667,2706,2740,2776,2807,2834,2854,2874,2884,2893,2897,2903,2903,2904,2901,2898,2891,2886,2874,2863,2851,2840,2825,2814,2799,2786,2772,2762,2750,2742,2730,2722,2710,2700,2689,2679,2666,2656,2643,2631,2618,2607,2595,2584,2572,2563,2553,2545,2535,2528,2519,2512,2505,2498,2491,2485,2479,2473,2467,2465,2467,2476,2489,2510,2537,2567,2601,2637,2675,2714,2751,2786,2816,2840,2858,2874,2885,2894,2902,2907,2911,2915,2916,2916,2915,2912,2906,2898,2889,2878,2866,2853,2840,2828,2816,2802,2791,2778,2766,2753,2742,2730,2719,2705,2693,2678,2666,2651,2639,2625,2613,2599,2588,2576,2565,2552,2543,2531,2523,2512,2505,2496,2488,2476,2468,2459,2450,2440,2433,2423,2415,2405,2400,2395,2399,2407,2424,2446,2478,2511,2552,2593,2639,2680,2727,2764,2800,2826,2850,2865,2880,2889,2900,2905,2913,2914,2918,2917,2917,2912,2908,2899,2891,2877,2867,2853,2841,2827,2816,2804,2794,2779,2770,2758,2749,2736,2727,2714,2701,2686,2674,2661,2649,2634,2622,2607,2595,2581,2571,2559,2551,2539,2529,2518,2509,2497,2487,2478,2468,2458,2449,2437,2428,2420,2415,2415,2423,2436,2455,2479,2509,2542,2580,2618,2656,2693,2727,2755,2778,2796,2812,2824,2833,2840,2847,2854,2857,2859,2861,2863,2860,2855,2850,2845,2840,2834,2826,2820,2812,2806,2799,2794,2787,2780,2771,2762,2751,2740,2729,2717,2703,2692,2677,2666,2652,2641,2627,2616,2604,2594,2582,2573,2563,2554,2544,2537,2526,2519,2510,2503,2493,2487,2481,2480,2482,2493,2508,2532,2559,2593,2629,2668,2707,2747,2783,2816,2843,2867,2882,2897,2907,2916,2921,2928,2931,2935,2936,2938,2934,2931,2922,2915,2904,2895,2880,2867,2852,2840,2825,2813,2799,2789,2774,2762,2749,2734,2722,2708,2692,2678,2663,2650,2635,2622,2607,2594,2581,2569,2556,2545,2531,2519,2508,2497,2486,2477,2466,2459,2449,2442,2434,2429,2422,2417,2412,2408,2402,2398,2391,2388,2387,2392,2401,2419,2442,2473,2507,2548,2591,2635,2678,2720,2758,2791,2816,2835,2848,2858,2864,2868,2872,2874,2877,2878,2877,2877,2874,2868,2861,2853,2846,2837,2826,2814,2805,2793,2784,2774,2767,2757,2749,2739,2731,2721,2712,2702,2692,2681,2671,2660,2651,2640,2631,2620,2610,2599,2592,2583,2575,2567,2561,2553,2546,2539,2534,2527,2521,2513,2512,2512,2518,2529,2547,2569,2596,2623,2657,2689,2724,2756,2787,2810,2831,2845,2857,2864,2872,2875,2880,2880,2882,2880,2879,2874,2870,2862,2857,2847,2839,2829,2821,2810,2803,2795,2789,2781,2775,2765,2758,2748,2740,2729,2718,2705,2694,2680,2668,2655,2644,2631,2621,2607,2600,2590,2581,2572,2566,2558,2553,2546,2542,2535,2532,2525,2520,2514,2509,2503,2497,2491,2491,2494,2505,2522,2548,2576,2609,2644,2683,2722,2761,2795,2827,2850,2868,2881,2891,2898,2904,2907,2909,2912,2914,2913,2912,2911,2906,2898,2889,2879,2868,2857,2846,2835,2823,2812,2801,2791,2782,2772,2762,2752,2742,2731,2718,2707,2694,2683,2671,2658,2646,2637,2626,2615,2604,2594,2584,2575,2565,2556,2546,2539,2529,2522,2514,2505,2496,2490,2479,2471,2461,2453,2442,2433,2423,2416,2405,2396,2386,2381,2378,2383,2391,2413,2439,2472,2512,2556,2603,2652,2699,2744,2783,2817,2841,2861,2874,2883,2889,2893,2895,2897,2898,2900,2899,2898,2893,2890,2883,2879,2870,2864,2855,2848,2837,2829,2819,2813,2803,2795,2784,2775,2764,2754,2740,2730,2717,2705,2691,2680,2666,2656,2643,2633,2622,2612,2601,2592,2582,2574,2563,2556,2547,2539,2530,2523,2514,2507,2498,2489,2481,2475,2470,2470,2475,2487,2506,2530,2558,2593,2629,2667,2705,2740,2773,2802,2823,2839,2850,2859,2865,2867,2869,2870,2869,2869,2867,2864,2860,2855,2848,2841,2833,2824,2817,2808,2800,2792,2785,2778,2771,2763,2755,2747,2739,2729,2719,2710,2700,2689,2679,2670,2660,2649,2640,2631,2624,2614,2605,2595,2587,2579,2571,2563,2556,2548,2540,2531,2523,2516,2509,2503,2503,2509,2521,2539,2565,2594,2628,2664,2702,2740,2778,2809,2836,2858,2874,2884,2892,2897,2901,2902,2904,2903,2905,2903,2901,2897,2894,2887,2881,2869,2862,2850,2841,2829,2820,2809,2800,2788,2778,2768,2761,2749,2739,2726,2714,2701,2688,2674,2662,2649,2636,2622,2610,2597,2587,2575,2565,2554,2544,2534,2524,2514,2504,2496,2487,2477,2469,2459,2452,2443,2435,2426,2419,2412,2405,2397,2390,2384,2385,2389,2404,2424,2454,2489,2529,2574,2622,2672,2721,2767,2807,2840,2867,2886,2901,2911,2918,2923,2927,2931,2934,2936,2936,2934,2931,2925,2918,2910,2900,2890,2878,2866,2854,2843,2833,2822,2812,2802,2791,2782,2772,2761,2750,2738,2725,2714,2701,2689,2676,2663,2651,2640,2628,2617,2609,2600,2591,2583,2574,2568,2561,2554,2547,2539,2532,2525,2518,2511,2508,2511,2518,2533,2553,2579,2609,2641,2676,2712,2748,2782,2812,2835,2855,2869,2879,2886,2891,2896,2899,2901,2901,2900,2896,2891,2884,2875,2865,2855,2844,2831,2818,2806,2794,2784,2773,2764,2755,6,2,0
2699,2720,2740,2757,2773,2785,2795,2801,2808,2812,2816,2819,2822,2822,2823,2820,2818,2813,2809,2801,2795,2786,2778,2769,2764,2755,2751,2744,2739,2733,2729,2721,2714,2707,2701,2694,2688,2681,2675,2666,2660,2652,2646,2638,2630,2620,2611,2603,2595,2588,2583,2576,2571,2566,2562,2560,2560,2558,2558,2554,2553,2550,2548,2546,2545,2544,2543,2542,2543,2545,2551,2559,2572,2587,2605,2625,2646,2669,2693,2716,2738,2759,2775,2791,2804,2816,2825,2833,2839,2844,2849,2853,2854,2855,2852,2848,2841,2833,2825,2815,2805,2796,2787,2778,2770,2765,2758,2754,2749,2745,2740,2738,2733,2729,2724,2718,2711,2706,2696,2690,2679,2672,2661,2651,2638,2627,2613,2600,2585,2572,2556,2545,2531,2521,2509,2503,2496,2493,2490,2491,2492,2494,2495,2497,2497,2500,2500,2503,2504,2507,2509,2516,2524,2536,2551,2571,2589,2613,2635,2659,2682,2706,2727,2747,2763,2778,2788,2797,2802,2809,2811,2816,2816,2817,2814,2813,2809,2806,2799,2796,2789,2786,2779,2776,2771,2770,2764,2761,2756,2753,2745,2740,2733,2730,2722,2716,2705,2699,2690,2684,2675,2669,2661,2654,2645,2638,2630,2624,2618,2615,2607,2603,2599,2598,2594,2592,2589,2588,2587,2587,2587,2591,2597,2607,2617,2633,2651,2670,2690,2712,2734,2757,2777,2794,2809,2821,2830,2838,2844,2849,2853,2856,2855,2853,2850,2844,2835,2825,2816,2804,2793,2781,2771,2760,2752,2743,2736,2730,2726,2717,2711,2703,2694,2683,2675,2665,2658,2650,2642,2633,2627,2619,2613,2607,2602,2595,2590,2582,2577,2570,2567,2561,2559,2557,2555,2552,2551,2547,2547,2545,2544,2541,2542,2540,2543,2546,2558,2569,2591,2609,2635,2660,2692,2719,2749,2774,2801,2820,2840,2851,2863,2866,2870,2868,2871,2866,2865,2858,2853,2844,2839,2830,2825,2815,2808,2799,2793,2784,2781,2773,2771,2765,2760,2755,2752,2745,2740,2732,2728,2718,2713,2702,2694,2682,2674,2663,2656,2644,2635,2624,2616,2605,2598,2587,2582,2574,2569,2561,2559,2554,2551,2546,2544,2541,2540,2539,2538,2534,2533,2530,2526,2522,2517,2513,2510,2507,2508,2512,2520,2532,2548,2569,2595,2623,2653,2684,2716,2745,2771,2795,2817,2835,2849,2860,2868,2874,2878,2880,2882,2885,2885,2883,2880,2877,2873,2869,2862,2857,2851,2845,2837,2830,2821,2814,2805,2796,2785,2775,2761,2748,2735,2723,2708,2694,2676,2664,2649,2635,2619,2606,2590,2576,2560,2550,2536,2529,2515,2508,2500,2496,2489,2490,2484,2482,2478,2479,2475,2479,2477,2479,2481,2483,2483,2488,2490,2494,2492,2496,2493,2496,2497,2501,2504,2511,2520,2537,2554,2580,2605,2637,2666,2699,2728,2758,2783,2805,2822,2840,2848,2857,2862,2866,2866,2869,2867,2870,2870,2871,2867,2869,2863,2858,2854,2849,2841,2835,2826,2821,2812,2808,2799,2795,2790,2787,2780,2777,2770,2766,2758,2753,2742,2736,2726,2717,2705,2697,2685,2677,2663,2653,2640,2628,2613,2601,2587,2575,2560,2552,2543,2536,2530,2529,2528,2531,2531,2536,2541,2546,2548,2550,2553,2556,2556,2556,2556,2560,2564,2572,2586,2606,2629,2654,2684,2717,2751,2786,2820,2851,2880,2904,2922,2936,2946,2953,2957,2956,2956,2953,2948,2942,2936,2928,2921,2911,2902,2891,2881,2870,2863,2854,2845,2836,2829,2821,2817,2810,2805,2799,2794,2787,2781,2775,2769,2760,2754,2745,2738,2728,2721,2709,2701,2690,2681,2671,2663,2654,2648,2642,2639,2633,2633,2628,2628,2625,2625,2622,2622,2621,2624,2626,2637,2646,2664,2682,2706,2727,2755,2779,2806,2826,2846,2857,2870,2874,2877,2873,2872,2865,2861,2851,2845,2833,2826,2812,2804,2793,2786,2777,2771,2762,2756,2749,2748,2743,2744,2740,2740,2735,2732,2726,2722,2714,2708,2697,2688,2676,2668,2656,2645,2633,2623,2614,2608,2597,2591,2583,2578,2569,2564,2558,2553,2547,2542,2534,2530,2525,2520,2516,2518,2519,2526,2538,2555,2575,2602,2631,2664,2698,2733,2765,2796,2824,2846,2864,2878,2887,2893,2896,2898,2897,2896,2894,2890,2887,2882,2873,2865,2856,2847,2836,2824,2814,2803,2793,2783,2774,2765,2758,2750,2744,2738,2730,2720,2711,2697,2685,2671,2657,2644,2630,2613,2600,2587,2577,2566,2558,2550,2546,2542,2540,2537,2536,2534,2533,2530,2528,2524,2522,2515,2512,2508,2506,2505,2513,2521,2540,2561,2588,2617,2655,2690,2728,2761,2797,2825,2851,2870,2888,2897,2908,2912,2916,2916,2917,2914,2913,2909,2907,2899,2893,2884,2877,2866,2858,2849,2842,2831,2823,2813,2808,2798,2791,2781,2773,2762,2752,2739,2729,2714,2700,2683,2670,2653,2638,2619,2605,2590,2578,2563,2552,2542,2535,2528,2523,2520,2518,2515,2515,2512,2510,2507,2504,2501,2500,2499,2500,2504,2514,2527,2546,2568,2597,2626,2659,2690,2723,2754,2783,2807,2826,2840,2851,2858,2862,2863,2863,2859,2855,2848,2839,2831,2822,2810,2797,2785,2774,2762,2751,2742,2734,2727,2720,2713,2707,2701,2695,2688,2681,2673,2663,2653,2644,2635,2626,2618,2608,2599,2589,2580,2571,2563,2554,2549,2543,2538,2533,2533,2531,2530,2528,2529,2526,2525,2522,2518,2514,2511,2505,2504,2501,2505,2512,2525,2541,2564,2591,2624,2655,2690,2723,2757,2785,2809,2829,2845,2853,2860,2860,2862,2859,2859,2854,2850,2844,2838,2828,2821,2810,2802,2790,2780,2767,2758,2748,2741,2734,2732,2726,2724,2719,2716,2710,2706,2700,2696,2688,2682,2671,2664,2654,2645,2635,2628,2619,2611,2602,2596,2588,2582,2575,2571,2566,2562,2557,2554,2551,2549,2546,2545,2543,2542,2543,2547,2554,2566,2580,2600,2621,2646,2672,2702,2730,2757,2781,2802,2818,2831,2838,2843,2843,2842,2840,2836,2829,2824,2817,2810,2802,2795,2786,2779,2771,2764,2757,2751,2745,2739,2735,2732,2727,2723,2719,2714,2709,2703,2700,2695,2688,2681,2674,2667,2661,2654,2647,2639,2632,2624,2617,2609,2603,2597,2593,2587,2582,2577,2573,2568,2563,2559,2558,2558,2560,2566,2577,2591,2613,2635,2661,2688,2718,2744,2771,2794,2814,2827,2836,2839,2841,2840,2838,2831,2828,2821,2815,2807,2799,2790,2782,2772,2764,2753,2745,2736,2731,2722,2718,2714,2710,2706,2701,2696,2693,2684,2678,2668,2660,2649,2640,2627,2619,2608,2600,2589,2581,2572,2564,2555,2550,2543,2539,2532,2529,2524,2521,2517,2514,2510,2510,2507,2506,2503,2503,2502,2506,2523,2536,2557,2579,2607,2637,2673,2708,2744,2776,2806,2834,2858,2874,2888,2897,2904,2904,2904,2902,2901,2896,2892,2884,2874,2863,2850,2835,2822,2807,2793,2779,2767,2754,2744,2736,2729,2721,2714,2706,2699,2689,2679,2668,2658,2647,2635,2621,2610,2598,2588,2579,2571,2564,2557,2550,2544,2539,2537,2533,2531,2530,2528,2527,2528,2526,2525,2523,2520,2518,2515,2513,2507,2502,2497,2493,2491,2492,2498,2506,2519,2537,2559,2586,2618,2651,2687,2721,2754,2784,2812,2833,2849,2861,2869,2872,2873,2871,2868,2863,2858,2851,2844,2839,2831,2823,2816,2807,2799,2790,2783,2776,2771,2765,2758,2752,2747,2741,2736,2729,2720,2711,2702,2692,2681,2669,2657,2645,2632,2622,2610,2599,2589,2580,2572,2565,2559,2555,2550,2546,2542,2537,2533,2531,2526,2522,2519,2515,2511,2507,2503,2498,2495,2490,2486,2483,2482,2483,2490,2501,2515,2535,2558,2585,2616,2647,2679,2711,2740,2764,2785,2801,2814,2822,2828,2829,2831,2830,2829,2827,2824,2820,2815,2809,2803,2795,2788,2779,2772,2764,2756,2749,2743,2739,2734,2729,2726,2722,2716,2710,2705,2699,2692,2685,2678,2671,2664,2655,2646,2639,2631,2623,2615,2608,2601,2594,2588,2583,2581,2578,2575,2573,2572,2572,2570,2568,2566,2565,2564,2562,2562,2564,2569,2577,2590,2606,2624,2646,2671,2697,2724,2752,2777,2801,2821,2836,2847,2859,2866,2869,2870,2870,2867,2863,2857,2851,2843,2835,2826,2817,2808,2799,2790,2782,2776,2772,2765,2762,2759,2758,2757,2758,2757,2757,2752,2749,2742,2736,2725,2715,2701,2686,2669,2654,2637,2626,2612,2601,2590,2581,2571,2564,2557,2551,2544,2541,2535,2532,2528,2529,2528,2530,2531,2535,2537,2543,2547,2557,2569,2585,2604,2627,2653,2684,2711,2744,2773,2803,2827,2850,2865,2880,2886,2892,2894,2896,2895,2894,2890,2888,2883,2879,2872,2866,2856,2847,2837,2827,2815,2806,2797,2790,2782,2777,2770,2765,2759,2753,2746,2740,2733,2727,2720,2712,2703,2695,2686,2679,2671,2662,2654,2646,2635,2624,2615,2607,2598,2590,2582,2576,2571,2567,2563,2561,2559,2556,2554,2551,2547,2545,2541,2540,2543,2546,2555,2569,2585,2605,2628,2655,2685,2714,2741,2764,2785,2803,2816,2828,2835,2840,2844,2845,2846,2847,2849,2849,2850,2849,2845,2840,2835,2827,2821,2812,2803,2793,2786,2776,2768,2759,2752,2744,2736,2726,2717,2705,2695,2683,2673,2660,2651,2640,2631,2621,2612,2602,2595,2585,2576,2566,2561,2551,2545,2537,2531,2526,2523,2518,2515,2513,2515,2518,2523,2529,2544,2558,2575,2592,2616,2638,2663,2684,2704,2722,2740,2750,2761,2768,2774,2776,2781,2780,2782,2781,2782,2777,2775,2771,2769,2765,2762,2757,2754,2751,2748,2743,2741,2738,2737,2734,2732,2726,2725,2721,2718,2713,2711,2705,2700,2692,2684,2676,2668,2656,2649,2638,2630,2619,2612,2605,2600,2594,2588,2582,2578,2574,2571,2567,2566,2563,2564,2566,2571,2580,2593,2609,2627,2647,2670,2694,2718,2740,2760,2778,2794,2805,2812,2816,2818,2818,2816,2813,2810,2807,2801,2795,2789,2783,2777,2773,2767,2762,2756,2753,2749,2747,2746,2744,2743,2743,2739,2735,2731,2728,2722,2717,2709,2701,2693,2683,2672,2664,2655,2647,2635,2626,2618,2611,2603,2599,2594,2592,2585,2582,2577,2576,2574,2571,2570,2573,2579,2590,2600,2617,2634,2656,2675,2698,2718,2741,2759,2774,2786,2797,2805,2812,2814,2817,2816,2817,2813,2811,2805,2801,2793,2786,2777,2771,2762,2759,2751,2749,2745,2743,2740,2738,2736,2736,2731,2730,2725,2722,2715,2712,2703,2698,2691,2686,2676,2671,2662,2653,2644,2636,2628,2624,2616,2610,2603,2600,2594,2591,2588,2589,2590,2596,2600,2612,2624,2640,2659,2681,2702,2725,2746,2766,2782,2797,2808,2818,2823,2828,2829,2831,2829,2826,2821,2817,2812,2806,2798,2791,2782,2773,2766,2759,2753,2747,2741,2734,2728,2722,2714,2707,2701,2692,2683,2675,2666,2658,2651,2642,2634,2626,2619,2609,2600,2592,2582,2573,2568,2561,2556,2551,2548,2543,2541,2539,2539,2540,2545,2550,2561,2575,2593,2613,2638,2663,2691,2716,2742,2764,2784,2798,2811,2818,2825,2826,2827,2825,2826,2823,2824,2820,2821,2818,2815,2811,2808,2803,2800,2792,2787,2780,2776,2769,2767,2762,2756,2749,2743,2736,2733,2725,2721,2710,2704,2692,2685,2676,2668,2659,2653,2642,2635,2625,2619,2609,2607,2598,2592,2586,2583,2575,2570,2563,2559,2552,2548,2543,2543,2542,2549,2554,2567,2581,2601,2623,2650,2676,2703,2727,2754,2773,2791,2805,2817,2823,2827,2828,2830,2832,2834,2830,2828,2823,2819,2813,2808,2800,2794,2785,2778,2767,2760,2753,2750,2744,2742,2736,2733,2730,2725,2717,2712,2705,2699,2690,2682,2674,2666,2656,2646,2637,2629,2622,2616,2608,2600,2594,2586,2581,2576,2572,2570,2565,2561,2561,2559,2558,2556,2555,2552,2552,2550,2550,2554,2561,2568,2581,2597,2619,2641,2666,2693,2718,2743,2767,2786,2804,2816,2827,2832,2838,2839,2841,2841,2842,2839,2837,2831,2826,2820,2813,2803,2797,2786,2779,2770,2762,2748,2741,2730,2723,2713,2704,2691,2682,2670,2660,2648,2642,2632,2626,2617,2612,2605,2602,2594,2592,2585,2584,2581,2582,2579,2580,2578,2581,2579,2582,2581,2587,2585,2586,2583,2584,2580,2582,2582,2587,2591,2602,2612,2631,2646,2668,2686,2709,2725,2745,2760,2776,2785,2795,2798,2802,2801,2803,2801,2801,2797,2795,2789,2785,2778,2774,2767,2762,2756,2754,2750,2748,2742,2741,2738,2736,2734,2732,2727,2724,2718,2713,2707,2702,2694,2688,2680,2673,2664,2657,2646,2638,2628,2622,2615,2607,2599,2593,2588,2584,2580,2578,2577,2575,2572,2570,2570,2570,2571,2574,2579,2586,2599,2614,2634,2655,2678,2703,2731,2756,2779,2800,2818,2832,2844,2851,2857,2860,2863,2861,2861,2860,2859,2856,2853,2847,2840,2831,2827,2818,2813,2805,2799,2790,2786,2779,2776,2770,2766,2759,2755,2747,2740,2729,2721,2710,2701,2687,2677,2665,2656,2643,2635,2626,2621,2610,2603,2594,2590,2583,2579,2572,2571,2565,2564,2559,2559,2557,2558,2554,2553,2547,2546,2540,2538,2530,2528,2525,2527,2530,2542,2557,2578,2598,2626,2654,2688,2718,2752,2779,2808,2828,2846,2858,2870,2874,2880,2881,2883,2878,2878,2872,2869,2862,2857,2848,2842,2831,2823,2814,2807,2799,2793,2787,2784,2778,2775,2769,2767,2761,2757,2751,2744,2735,2727,2718,2709,2698,2688,2676,2667,2654,2643,2632,2624,2613,2606,2598,2592,2586,2581,2577,2574,2570,2567,2564,2561,2557,2554,2550,2548,2544,2541,2537,2532,2529,2526,2524,2523,2524,2529,2539,2552,2572,2596,2624,2656,2689,2722,2758,2790,2819,2843,2863,2877,2889,2896,2899,2899,2899,2894,2891,2887,2883,2876,2871,2863,2856,2847,2840,2833,2827,2820,2813,2805,2802,2796,2790,2783,2778,2769,2762,2752,2744,2732,2722,2708,2699,2686,2676,2662,2652,2639,2628,2617,2610,2601,2595,2586,2582,2573,2569,2564,2563,2558,2557,2551,2552,2548,2548,2544,2545,2540,2539,2533,2531,2524,2523,2516,2518,2517,2526,2536,2554,2575,2601,2627,2661,2691,2725,2754,2785,2806,2827,2840,2854,2859,2865,2865,2865,2861,2858,2851,2847,2838,2833,2824,2818,2810,2806,2802,2800,2795,2793,2788,2787,2785,2783,2778,2775,2769,2762,2753,2747,2736,2728,2717,2704,2690,2679,2666,2655,2643,2631,2618,2610,2598,2589,2582,2576,2570,2567,2562,2559,2556,2554,2552,2552,2552,2552,2554,2558,2565,2576,2591,2609,2631,2654,2681,2707,2732,2758,2784,2805,2823,2837,2850,2856,2862,2865,2865,2864,2863,2857,2852,2844,2837,2826,2818,2808,2801,2793,2787,2779,2773,2767,2762,2756,2752,2745,2739,2728,2719,2706,2696,2682,2668,2653,2642,2627,2615,2601,2593,2585,2578,2571,2568,2562,2560,2556,2553,2549,2549,2545,2542,2537,2535,2530,2530,2526,2526,2526,2533,2539,2551,2566,2589,2611,2640,2669,2703,2732,2765,2789,2815,2832,2850,2860,2869,2873,2876,2874,2876,2871,2870,2862,2858,2849,2843,2832,2826,2816,2808,2797,2790,2781,2776,2768,2764,2755,2750,2740,2731,2720,2711,2697,2685,2670,2657,2643,2630,2616,2604,2593,2583,2573,2567,2560,2557,2552,2549,2546,2547,2545,2544,2542,2542,2540,2538,2535,2533,2529,2528,2525,2525,2527,2533,2543,2558,2575,2597,2622,2651,2682,2714,2745,2774,2802,2824,2842,2859,2871,2881,2886,2889,2890,2891,2891,2888,2885,2877,2870,2860,2850,2839,2828,2817,2806,2794,2786,2779,2774,2768,2765,2761,2759,2754,2751,2747,2743,2734,2728,2718,2710,2699,2687,2674,2665,2650,2638,2625,2615,2604,2596,2587,2584,2578,2576,2572,2573,2570,2572,2569,2570,2567,2566,2560,2558,2550,2547,2541,2538,2532,2536,2538,2547,2559,2579,2599,2628,2655,2690,2721,2755,2781,2809,2831,2852,2864,2874,2879,2884,2882,2883,2879,2879,2873,2869,2861,2856,2848,2840,2829,2822,2811,2803,2791,2783,2772,2766,2756,2748,2738,2732,2722,2713,2703,2695,2684,2676,2663,2652,2640,2630,2617,2606,2594,2584,2573,2566,2556,2550,2544,2541,2538,2537,2533,2532,2529,2527,2524,2524,2522,2520,2517,2514,2509,2507,2504,2504,2506,2510,2517,2531,2546,2565,2590,2619,2648,2678,2708,2736,2762,2785,2802,2817,2827,2833,2836,2837,2836,2832,2827,2819,2809,2797,2785,2771,2757,2742,2730,2716,2704,2695,2688,2683,2680,2678,2677,2676,2675,2674,2674,2672,2670,2664,2658,2652,2646,2638,2630,2620,2611,2599,2591,2581,2577,2570,2566,2562,2562,2562,2564,2566,2570,2571,2574,2574,2577,2575,2577,2576,2580,2584,2593,2605,2623,2642,2667,2690,2719,2744,2774,2798,2821,2838,2856,2867,2877,2880,2885,2884,2885,2880,2876,2868,2862,2850,2839,2825,2814,2798,2786,2772,2759,2748,2739,2726,2722,2712,2705,2697,2692,2683,2675,2662,2653,2641,2631,2616,2606,2593,2584,2570,2560,2550,2544,2535,2528,2521,2518,2514,2512,2508,2510,2509,2512,2514,2518,2521,2523,2525,2528,2528,2530,2528,2527,2524,2526,2526,2532,2541,2555,2574,2599,2626,2658,2691,2724,2756,2787,2814,2836,2854,2867,2876,2883,2885,2887,2888,2886,2884,2882,2879,2874,2867,2859,2850,2838,2827,2815,2804,2791,2780,2770,2761,2752,2745,2739,2734,2729,2724,2717,2709,2701,2694,2684,2676,2667,2659,2649,2641,2633,2627,2621,2616,2610,2606,2601,2597,2591,2587,2582,2578,2573,2572,2566,2564,2559,2557,2552,2550,2545,2541,2535,2532,2526,2523,2519,2521,2524,2536,2548,2568,2591,2622,2651,2686,2719,2755,2784,2815,2836,2858,2872,2884,2890,2895,2895,2895,2891,2891,2885,2883,2875,2869,0,0,1
2748,2733,2720,2702,2687,2666,2650,2630,2613,2593,2578,2559,2544,2527,2515,2502,2491,2479,2471,2462,2456,2446,2441,2434,2431,2423,2418,2411,2407,2400,2399,2400,2411,2425,2450,2479,2518,2560,2608,2658,2713,2763,2813,2854,2890,2915,2936,2948,2956,2958,2957,2951,2945,2935,2926,2914,2904,2889,2879,2866,2854,2842,2832,2821,2813,2805,2797,2789,2782,2774,2767,2756,2745,2731,2717,2702,2686,2668,2652,2635,2619,2603,2588,2575,2562,2549,2539,2529,2521,2513,2505,2498,2491,2485,2480,2480,2484,2495,2511,2534,2563,2597,2635,2677,2721,2766,2807,2844,2874,2899,2916,2929,2935,2937,2933,2929,2921,2914,2904,2894,2881,2869,2857,2846,2833,2823,2810,2801,2790,2782,2772,2765,2755,2747,2736,2726,2713,2701,2685,2671,2653,2638,2620,2606,2589,2575,2560,2549,2536,2526,2515,2508,2500,2494,2486,2483,2475,2471,2464,2460,2452,2449,2444,2444,2446,2460,2476,2502,2531,2571,2611,2661,2709,2759,2806,2853,2888,2919,2941,2960,2968,2976,2975,2975,2970,2965,2956,2948,2936,2927,2914,2904,2890,2880,2864,2852,2837,2824,2811,2800,2786,2776,2762,2752,2736,2725,2709,2694,2676,2663,2644,2630,2612,2598,2581,2569,2554,2544,2532,2524,2513,2507,2498,2489,2481,2474,2465,2460,2451,2444,2435,2427,2419,2415,2414,2420,2431,2451,2475,2509,2545,2589,2635,2685,2732,2777,2817,2851,2878,2897,2909,2918,2921,2921,2919,2916,2910,2904,2896,2886,2877,2867,2857,2846,2835,2822,2810,2798,2786,2775,2766,2755,2745,2733,2722,2710,2697,2682,2668,2653,2637,2621,2608,2592,2578,2564,2552,2541,2532,2521,2514,2505,2499,2490,2484,2478,2472,2464,2458,2449,2444,2437,2435,2434,2441,2451,2471,2497,2529,2564,2607,2650,2696,2735,2809,2852,2871,2891,2901,2908,2909,2912,2907,2903,2895,2876,2867,2855,2844,2833,2822,2806,2797,2785,2778,2766,2761,2751,2745,2737,2729,2718,2708,2692,2680,2662,2648,2629,2614,2595,2582,2565,2553,2540,2532,2520,2513,2504,2499,2489,2485,2476,2472,2464,2460,2454,2453,2457,2468,2484,2507,2535,2573,2611,2657,2700,2747,2791,2830,2860,2888,2907,2923,2929,2934,2931,2932,2926,2923,2914,2907,2897,2888,2876,2867,2855,2846,2833,2823,2810,2801,2792,2785,2775,2768,2756,2746,2734,2721,2706,2692,2675,2659,2642,2627,2611,2598,2583,2570,2557,2548,2538,2530,2521,2514,2507,2502,2495,2491,2485,2478,2472,2466,2457,2450,2442,2437,2434,2438,2447,2463,2488,2520,2560,2605,2654,2706,2759,2810,2858,2898,2931,2956,2973,2983,2988,2988,2986,2980,2972,2962,2953,2942,2931,2918,2904,2890,2877,2862,2849,2834,2820,2806,2794,2780,2768,2755,2743,2728,2714,2698,2684,2667,2651,2632,2615,2597,2580,2563,2549,2533,2519,2504,2494,2481,2473,2463,2455,2447,2440,2432,2427,2419,2413,2404,2397,2388,2381,2372,2367,2360,2359,2362,2376,2393,2422,2457,2501,2548,2602,2654,2712,2765,2814,2855,2890,2916,2936,2946,2954,2955,2955,2950,2946,2937,2929,2916,2906,2892,2882,2869,2859,2846,2836,2825,2819,2810,2804,2796,2792,2782,2775,2765,2756,2742,2730,2712,2696,2678,2663,2645,2631,2614,2600,2586,2574,2562,2553,2542,2535,2525,2519,2509,2503,2496,2492,2493,2501,2515,2536,2562,2596,2632,2676,2721,2769,2815,2857,2893,2923,2946,2964,2974,2980,2979,2977,2970,2961,2950,2938,2924,2910,2897,2883,2869,2857,2844,2834,2823,2813,2805,2797,2788,2779,2769,2758,2745,2729,2712,2694,2676,2658,2639,2619,2600,2582,2566,2551,2537,2524,2512,2501,2493,2485,2477,2470,2463,2456,2449,2442,2435,2428,2423,2421,2425,2435,2454,2481,2516,2558,2607,2658,2716,2773,2828,2876,2919,2954,2980,2998,3010,3015,3018,3014,3009,3002,2996,2985,2974,2962,2950,2936,2923,2907,2893,2878,2864,2846,2834,2819,2808,2794,2783,2767,2754,2738,2723,2706,2690,2671,2653,2633,2614,2595,2579,2561,2549,2535,2524,2510,2502,2493,2486,2477,2472,2464,2459,2450,2443,2434,2427,2417,2410,2402,2401,2403,2415,2431,2459,2492,2533,2578,2629,2686,2791,2836,2878,2910,2934,2952,2963,2969,2970,2969,2964,2960,2950,2941,2932,2922,2910,2898,2884,2872,2857,2844,2829,2817,2804,2791,2779,2766,2753,2740,2727,2715,2700,2685,2668,2653,2636,2619,2602,2587,2572,2557,2543,2530,2519,2509,2499,2489,2481,2476,2469,2463,2457,2450,2443,2437,2429,2423,2416,2408,2402,2400,2404,2414,2432,2458,2492,2533,2579,2630,2683,2738,2789,2836,2877,2910,2935,2952,2962,2967,2969,2965,2960,2953,2945,2936,2926,2915,2903,2891,2878,2865,2853,2839,2827,2814,2802,2791,2780,2767,2756,2743,2731,2716,2701,2685,2668,2650,2633,2615,2598,2581,2565,2549,2536,2522,2511,2500,2491,2482,2474,2465,2460,2453,2446,2438,2433,2425,2418,2410,2402,2395,2390,2389,2398,2410,2433,2464,2502,2545,2594,2647,2703,2758,2809,2854,2893,2921,2942,2955,2964,2966,2964,2958,2952,2942,2932,2921,2911,2897,2886,2873,2862,2849,2838,2825,2816,2803,2796,2786,2778,2768,2758,2747,2735,2723,2708,2692,2677,2659,2643,2626,2611,2596,2583,2569,2557,2544,2534,2525,2516,2507,2499,2490,2483,2476,2470,2466,2466,2470,2481,2498,2522,2552,2590,2630,2674,2720,2765,2808,2848,2881,2907,2925,2938,2942,2943,2941,2936,2927,2917,2906,2892,2880,2867,2853,2840,2829,2817,2804,2794,2785,2776,2769,2762,2755,2746,2736,2724,2711,2699,2683,2666,2649,2631,2613,2594,2577,2561,2545,2530,2518,2506,2495,2484,2475,2468,2461,2453,2448,2443,2437,2430,2423,2417,2411,2408,2410,2417,2433,2457,2489,2528,2573,2624,2680,2737,2794,2846,2893,2933,2963,2986,3001,3010,3013,3012,3009,3003,2995,2986,2977,2965,2954,2941,2927,2914,2900,2886,2872,2858,2846,2833,2820,2807,2795,2783,2770,2756,2740,2725,2707,2689,2672,2655,2637,2620,2601,2583,2568,2555,2541,2529,2518,2508,2497,2489,2481,2475,2469,2463,2456,2450,2443,2436,2429,2421,2413,2407,2406,2411,2424,2443,2472,2508,2552,2600,2654,2710,2768,2820,2868,2909,2941,2964,2981,2991,2995,2995,2991,2985,2977,2969,2958,2947,2937,2926,2915,2901,2889,2876,2863,2851,2838,2826,2814,2801,2788,2776,2762,2748,2733,2717,2699,2681,2664,2647,2628,2609,2592,2576,2561,2547,2534,2522,2510,2500,2491,2485,2477,2470,2464,2458,2453,2447,2441,2434,2427,2420,2412,2405,2400,2395,2395,2402,2419,2443,2474,2513,2558,2609,2662,2717,2773,2824,2870,2907,2936,2956,2969,2977,2979,2978,2975,2968,2960,2950,2939,2927,2915,2903,2892,2879,2865,2851,2838,2826,2814,2802,2791,2782,2770,2756,2745,2732,2717,2703,2687,2670,2654,2636,2620,2603,2587,2570,2557,2543,2531,2520,2510,2500,2493,2486,2479,2473,2468,2461,2456,2449,2443,2436,2430,2424,2420,2416,2419,2429,2449,2473,2507,2545,2591,2641,2693,2745,2798,2842,2883,2915,2941,2956,2969,2972,2973,2969,2965,2955,2948,2937,2926,2913,2903,2890,2879,2866,2857,2846,2837,2827,2819,2811,2804,2794,2785,2772,2761,2746,2731,2713,2697,2678,2661,2643,2626,2609,2595,2580,2568,2556,2546,2535,2526,2518,2512,2504,2499,2491,2484,2477,2470,2463,2457,2451,2448,2448,2456,2471,2493,2522,2559,2602,2649,2699,2752,2801,2848,2888,2920,2946,2965,2974,2980,2981,2978,2972,2966,2957,2947,2935,2924,2912,2900,2886,2874,2861,2848,2836,2824,2811,2800,2788,2778,2768,2756,2742,2728,2714,2698,2683,2666,2650,2634,2616,2598,2583,2567,2553,2540,2528,2516,2507,2498,2490,2484,2478,2472,2467,2461,2455,2450,2445,2437,2431,2423,2418,2413,2415,2421,2436,2459,2490,2527,2573,2621,2674,2728,2783,2833,2878,2914,2944,2964,2979,2985,2990,2987,2984,2978,2971,2961,2952,2940,2930,2917,2906,2892,2882,2867,2856,2841,2832,2819,2809,2796,2785,2773,2761,2746,2733,2716,2700,2681,2665,2646,2630,2611,2596,2579,2567,2551,2538,2526,2517,2506,2500,2490,2485,2477,2472,2465,2461,2454,2449,2440,2435,2426,2420,2411,2403,2394,2390,2386,2392,2403,2426,2454,2493,2536,2588,2642,2703,2761,2819,2868,2912,2945,2972,2989,3001,3007,3010,3004,3000,2991,2984,2973,2964,2951,2940,2926,2912,2897,2884,2870,2857,2843,2831,2819,2809,2797,2786,2773,2760,2745,2731,2712,2695,2676,2658,2637,2619,2601,2584,2568,2553,2538,2527,2515,2505,2495,2486,2480,2473,2466,2460,2454,2447,2441,2434,2427,2420,2413,2406,2401,2399,2402,2412,2430,2457,2491,2533,2581,2633,2687,2743,2797,2848,2891,2926,2953,2973,2985,2990,2991,2988,2983,2975,2965,2953,2941,2928,2915,2903,2890,2877,2866,2854,2844,2833,2825,2816,2807,2797,2788,2776,2764,2749,2734,2717,2701,2681,2664,2645,2627,2608,2593,2576,2562,2548,2536,2524,2516,2507,2500,2492,2487,2479,2474,2467,2462,2454,2450,2443,2443,2445,2456,2473,2499,2532,2572,2615,2666,2717,2771,2819,2866,2903,2936,2959,2977,2985,2990,2989,2986,2978,2972,2962,2953,2939,2929,2915,2903,2889,2877,2862,2851,2837,2827,2814,2805,2793,2784,2771,2761,2746,2733,2716,2701,2682,2665,2645,2628,2608,2592,2575,2561,2546,2533,2520,2511,2500,2494,2486,2481,2474,2469,2463,2460,2453,2448,2442,2436,2426,2420,2411,2406,2404,2410,2421,2443,2470,2508,2551,2602,2655,2712,2769,2825,2874,2917,2949,2974,2992,3003,3007,3009,3007,3002,2995,2986,2977,2968,2956,2944,2931,2919,2905,2890,2876,2862,2847,2834,2822,2810,2797,2784,2770,2755,2741,2726,2711,2693,2675,2656,2638,2620,2603,2585,2570,2554,2540,2527,2516,2504,2495,2485,2478,2470,2464,2457,2451,2445,2437,2429,2422,2411,2403,2393,2385,2374,2368,2363,2367,2378,2398,2424,2459,2499,2546,2596,2652,2703,2754,2799,2839,2870,2898,2915,2931,2938,2944,2944,2945,2941,2938,2929,2922,2911,2900,2887,2875,2860,2849,2834,2823,2809,2800,2789,2780,2769,2760,2748,2738,2724,2713,2697,2684,2668,2654,2638,2625,2608,2596,2580,2570,2557,2548,2535,2527,2516,2509,2499,2493,2485,2479,2471,2468,2465,2469,2476,2493,2512,2541,2570,2608,2647,2691,2733,2777,2815,2851,2877,2900,2915,2927,2932,2935,2932,2931,2923,2916,2904,2895,2883,2872,2858,2846,2833,2821,2807,2796,2785,2775,2764,2756,2744,2734,2722,2710,2695,2682,2665,2650,2633,2616,2598,2583,2567,2551,2536,2525,2512,2501,2490,2480,2470,2462,2453,2446,2437,2432,2430,2432,2441,2457,2480,2512,2549,2592,2640,2691,2744,2795,2844,2887,2924,2952,2974,2990,3000,3005,3008,3007,3004,2997,2988,2978,2967,2953,2939,2922,2906,2888,2871,2852,2835,2818,2803,2787,2773,2757,2744,2728,2714,2697,2683,2666,2652,2635,2621,2604,2590,2576,2563,2548,2538,2527,2517,2505,2498,2488,2481,2474,2467,2460,2455,2446,2439,2431,2428,2425,2431,2439,2458,2481,2514,2551,2598,2646,2700,2751,2805,2851,2896,2931,2960,2982,2999,3008,3016,3016,3016,3011,3007,2998,2990,2978,2968,2954,2942,2925,2911,2893,2879,2861,2847,2832,2819,2803,2791,2775,2764,2747,2734,2715,2701,2682,2666,2648,2633,2615,2601,2583,2570,2553,2542,2527,2517,2505,2496,2484,2477,2466,2459,2451,2444,2435,2428,2417,2411,2400,2395,2390,2393,2398,2412,2435,2467,2505,2550,2600,2657,2712,2770,2822,2871,2912,2946,2969,2989,3002,3009,3011,3011,3008,3004,2996,2987,2976,2964,2951,2937,2921,2905,2889,2871,2853,2837,2821,2806,2792,2778,2764,2749,2735,2719,2703,2687,2670,2651,2634,2615,2597,2579,2561,2544,2530,2514,2500,2487,2475,2463,2453,2442,2435,2427,2419,2410,2402,2393,2387,2379,2374,2365,2358,2348,2342,2338,2340,2348,2367,2391,2425,2464,2513,2567,2628,2687,2748,2806,2858,2900,2938,2965,2987,3000,3009,3011,3013,3009,3006,2998,2993,2979,2969,2955,2942,2926,2912,2895,2883,2866,2854,2838,2828,2815,2806,2792,2783,2770,2759,2742,2730,2712,2698,2679,2662,2643,2627,2608,2595,2578,2565,2548,2538,2524,2514,2502,2494,2484,2476,2464,2457,2447,2439,2431,2428,2427,2435,2447,2468,2496,2535,2575,2625,2676,2731,2782,2834,2876,2916,2945,2968,2981,2992,2994,2994,2989,2984,2974,2962,2948,2935,2918,2903,2885,2870,2853,2837,2821,2808,2794,2783,2770,2759,2746,2734,2719,2705,2689,2673,2655,2637,2615,2597,2578,2561,2542,2526,2509,2495,2479,2465,2453,2443,2433,2425,2415,2408,2401,2394,2387,2382,2375,2368,2362,2355,2348,2343,2340,2342,2351,2368,2397,2435,2481,2535,2595,2660,2728,2795,2859,2917,2969,3010,3041,3063,3078,3086,3089,3089,3085,3078,3070,3060,3048,3034,3021,3006,2991,2974,2958,2940,2923,2905,2888,2870,2856,2839,2823,2805,2789,2770,2753,2734,2716,2696,2678,2655,2636,2615,2597,2577,2560,2542,2527,2509,2495,2480,2470,2457,2447,2437,2430,2420,2414,2404,2397,2388,2382,2372,2366,2356,2349,2340,2339,2340,2354,2375,2409,2447,2497,2553,2617,2682,2751,2817,2881,2934,2981,3015,3044,3062,3076,3079,3083,3079,3074,3064,3055,3041,3029,3012,2996,2976,2960,2939,2921,2901,2884,2864,2848,2829,2814,2796,2781,2763,2747,2727,2709,2689,2671,2648,2630,2606,2587,2564,2544,2523,2506,2486,2469,2452,2438,2424,2415,2403,2396,2386,2377,2368,2361,2353,2346,2338,2330,2321,2314,2304,2298,2296,2301,2312,2333,2364,2406,2455,2513,2575,2642,2712,2781,2843,2900,2949,2986,3013,3033,3045,3052,3054,3051,3044,3036,3025,3014,2999,2983,2966,2948,2930,2911,2892,2873,2856,2839,2823,2808,2794,2779,2765,2750,2735,2719,2702,2684,2666,2647,2630,2610,2592,2573,2556,2538,2522,2507,2492,2477,2464,2452,2442,2431,2421,2413,2405,2396,2389,2381,2376,2371,2374,2379,2392,2414,2445,2482,2529,2578,2634,2690,2749,2805,2857,2901,2940,2967,2988,3000,3009,3009,3009,3001,2993,2979,2965,2946,2930,2910,2894,2874,2858,2840,2826,2810,2801,2788,2778,2769,2762,2752,2742,2730,2718,2703,2689,2670,2654,2636,2618,2598,2580,2560,2543,2525,2510,2494,2482,2468,2457,2444,2434,2423,2416,2410,2408,2409,2421,2438,2466,2498,2542,2588,2642,2697,2755,2810,2865,2910,2949,2978,3000,3015,3025,3029,3028,3023,3017,3005,2994,2978,2964,2948,2932,2915,2898,2881,2866,2851,2839,2827,2817,2806,2796,2785,2774,2762,2749,2734,2719,2702,2684,2666,2648,2628,2610,2591,2573,2556,2540,2523,2510,2497,2484,2472,2462,2452,2446,2444,2447,2459,2478,2504,2538,2579,2624,2674,2727,2780,2830,2875,2915,2947,2971,2989,3000,3005,3005,3002,2996,2988,2977,2966,2952,2937,2920,2905,2888,2871,2854,2837,2820,2806,2790,2776,2763,2750,2736,2722,2707,2691,2676,2659,2640,2623,2603,2586,2567,2550,2532,2517,2501,2486,2472,2461,2450,2439,2429,2420,2411,2403,2395,2388,2381,2376,2370,2372,2379,2392,2414,2445,2485,2530,2580,2636,2693,2752,2808,2860,2904,2940,2966,2988,3001,3011,3015,3016,3013,3009,3002,2994,2983,2972,2958,2944,2928,2912,2893,2875,2855,2838,2820,2804,2787,2771,2755,2740,2724,2710,2693,2676,2659,2642,2624,2608,2590,2574,2558,2543,2527,2514,2500,2489,2476,2467,2456,2448,2438,2430,2422,2414,2404,2397,2387,2380,2371,2364,2358,2354,2357,2367,2384,2412,2446,2489,2538,2591,2649,2707,2765,2819,2866,2907,2937,2963,2979,2990,2996,2998,2997,2994,2987,2979,2968,2957,2944,2930,2914,2898,2880,2862,2843,2826,2810,2795,2779,2764,2749,2735,2721,2706,2691,2676,2660,2642,2625,2608,2590,2572,2554,2539,2523,2508,2494,2481,2470,2458,2447,2439,2430,2423,2415,2408,2401,2394,2388,2380,2372,2365,2359,2352,2347,2346,2350,2361,2380,2409,2446,2489,2539,2596,2655,2715,2774,2829,2877,2918,2951,2974,2992,3003,3008,3010,3009,3003,2996,2987,2975,2961,2948,2932,2915,2898,2880,2863,2847,2831,2816,2802,2788,2776,2764,2754,2741,2729,2714,2699,2684,2669,2653,2637,2620,2603,2586,2569,2554,2541,2529,2517,2505,2495,2486,2477,2468,2459,2451,2444,2437,2434,2434,2442,2454,2474,2502,2537,2576,2619,2668,2716,2765,2811,2852,2887,2915,2936,2951,2960,2964,2964,2959,2952,2941,2930,2915,2901,2886,2871,2854,2839,2824,2811,2796,2785,2775,2765,2754,2746,2737,2728,2717,2704,2692,2678,2663,2649,2632,2617,2601,2585,2570,2556,2544,2532,2520,2510,2500,2493,2486,2479,2473,2471,2473,2481,2496,2519,2548,2583,2623,2668,2716,2766,2814,2861,2901,2935,2961,2981,2995,3002,3006,3006,3001,2994,2983,2972,2959,2944,2928,2911,2895,2878,2861,2844,2828,2813,2798,2784,2772,2760,2748,2734,2720,2704,2688,2671,2653,2635,2617,2597,2578,2559,2541,2522,2508,2493,2480,2467,2457,2445,2435,2425,2418,2409,2403,2394,2386,2377,2370,2364,2364,2369,2384,2405,2436,2475,2522,2575,2633,2692,2755,2813,2868,2914,2954,2985,3010,3025,3035,3041,3043,3040,3037,3030,3022,3010,3000,2984,2970,2952,2936,2917,2900,2880,2862,2844,2827,2808,4,4,0
2960,2937,2916,2897,2879,2860,2845,2832,2818,2805,2792,2778,2763,2744,2724,2702,2679,2655,2629,2604,2579,2552,2526,2500,2475,2452,2433,2414,2396,2379,2364,2350,2340,2330,2321,2313,2306,2300,2297,2300,2312,2336,2370,2415,2471,2538,2611,2693,2778,2863,2943,3016,3076,3124,3159,3179,3187,3188,3178,3162,3140,3116,3089,3060,3032,3004,2978,2952,2927,2905,2883,2864,2847,2832,2816,2801,2787,2773,2759,2741,2723,2704,2682,2661,2637,2610,2584,2558,2531,2503,2477,2452,2429,2406,2384,2364,2348,2333,2319,2308,2299,2290,2281,2274,2268,2262,2260,2265,2279,2303,2339,2387,2446,2514,2591,2674,2760,2846,2924,2996,3056,3102,3134,3153,3160,3156,3144,3127,3105,3080,3052,3024,2994,2965,2939,2914,2892,2872,2852,2836,2823,2810,2799,2788,2779,2768,2755,2740,2725,2708,2687,2665,2643,2619,2594,2569,2545,2521,2499,2477,2457,2437,2420,2405,2391,2377,2366,2353,2345,2337,2335,2339,2355,2378,2412,2458,2514,2577,2647,2721,2797,2870,2936,2992,3037,3069,3090,3097,3095,3085,3067,3043,3016,2987,2956,2924,2894,2865,2839,2815,2793,2775,2760,2748,2738,2728,2722,2714,2705,2696,2684,2672,2656,2638,2618,2597,2576,2552,2528,2506,2484,2463,2442,2422,2402,2383,2367,2352,2340,2332,2330,2339,2357,2387,2428,2482,2544,2613,2688,2766,2843,2915,2978,3031,3071,3098,3112,3116,3110,3097,3078,3056,3030,3004,2975,2947,2920,2895,2872,2851,2832,2815,2799,2785,2773,2763,2753,2744,2732,2721,2707,2693,2675,2656,2635,2613,2589,2566,2542,2520,2496,2475,2452,2433,2413,2397,2380,2369,2359,2360,2369,2390,2422,2466,2519,2583,2652,2727,2801,2876,2942,3000,3046,3080,3100,3113,3113,3107,3092,3075,3050,3027,3001,2977,2951,2926,2900,2876,2853,2832,2813,2797,2779,2766,2751,2737,2723,2711,2696,2682,2664,2646,2626,2605,2581,2559,2535,2512,2489,2467,2445,2427,2407,2391,2376,2362,2347,2338,2328,2322,2321,2329,2347,2376,2414,2464,2523,2591,2662,2737,2814,2886,2948,3000,3040,3070,3088,3094,3090,3080,3065,3045,3021,2997,2973,2948,2923,2898,2874,2850,2828,2807,2788,2769,2752,2737,2721,2705,2690,2676,2661,2643,2626,2606,2586,2563,2542,2518,2496,2473,2450,2428,2409,2389,2372,2355,2341,2327,2318,2306,2299,2290,2284,2278,2275,2273,2278,2289,2311,2342,2385,2435,2496,2561,2633,2706,2780,2846,2908,2958,2997,3022,3039,3044,3042,3030,3016,2997,2978,2953,2931,2904,2883,2859,2838,2818,2800,2783,2770,2755,2746,2733,2724,2713,2703,2691,2678,2662,2648,2629,2611,2589,2569,2546,2526,2504,2485,2465,2447,2430,2417,2401,2390,2380,2370,2361,2356,2353,2355,2363,2381,2405,2441,2485,2537,2595,2659,2722,2787,2846,2899,2942,2977,3000,3013,3017,3014,3004,2992,2976,2959,2939,2918,2897,2877,2857,2839,2821,2804,2788,2773,2760,2750,2738,2728,2717,2706,2694,2681,2668,2653,2635,2616,2597,2578,2558,2538,2519,2499,2479,2461,2445,2431,2417,2404,2394,2385,2376,2368,2363,2363,2370,2383,2406,2438,2479,2525,2579,2639,2702,2766,2827,2880,2927,2965,2993,3009,3019,3020,3017,3007,2995,2980,2965,2947,2929,2910,2894,2876,2861,2844,2832,2815,2802,2787,2776,2764,2753,2740,2728,2713,2701,2684,2669,2651,2635,2616,2598,2577,2560,2540,2523,2504,2488,2472,2458,2443,2432,2420,2411,2401,2395,2387,2380,2374,2373,2375,2389,2407,2436,2471,2517,2566,2623,2682,2742,2800,2854,2899,2937,2964,2984,2993,2997,2992,2987,2976,2963,2948,2931,2914,2898,2881,2865,2847,2834,2819,2805,2792,2782,2772,2762,2750,2741,2729,2720,2706,2691,2676,2660,2640,2623,2604,2587,2567,2549,2529,2513,2498,2483,2469,2457,2445,2434,2424,2416,2407,2399,2393,2389,2388,2396,2410,2432,2462,2500,2545,2596,2650,2704,2760,2811,2855,2893,2922,2941,2953,2957,2955,2948,2938,2925,2911,2894,2878,2861,2844,2828,2815,2800,2788,2777,2768,2760,2753,2745,2738,2730,2722,2713,2703,2690,2679,2664,2649,2633,2617,2600,2583,2567,2553,2537,2524,2508,2497,2485,2475,2463,2455,2448,2449,2453,2467,2487,2518,2552,2594,2638,2689,2739,2790,2834,2874,2905,2928,2942,2950,2950,2948,2939,2930,2916,2904,2888,2874,2856,2843,2828,2817,2804,2793,2782,2774,2764,2758,2750,2744,2736,2729,2717,2707,2694,2682,2668,2655,2637,2623,2606,2591,2572,2559,2544,2530,2515,2502,2487,2478,2470,2468,2471,2486,2505,2532,2567,2607,2651,2697,2743,2789,2832,2869,2896,2916,2926,2931,2929,2921,2912,2901,2886,2870,2851,2834,2816,2799,2780,2763,2748,2732,2719,2709,2700,2694,2688,2683,2680,2677,2674,2671,2666,2658,2651,2640,2630,2619,2607,2596,2585,2572,2560,2549,2538,2527,2519,2509,2501,2497,2499,2505,2521,2542,2571,2605,2644,2685,2729,2774,2817,2853,2885,2909,2927,2937,2945,2946,2947,2942,2938,2931,2925,2917,2909,2898,2890,2878,2868,2855,2844,2831,2820,2809,2797,2785,2776,2763,2751,2736,2723,2708,2693,2677,2660,2643,2628,2609,2593,2574,2559,2544,2530,2515,2503,2489,2478,2466,2459,2455,2459,2468,2485,2508,2536,2569,2609,2649,2692,2733,2773,2805,2832,2849,2863,2870,2873,2872,2868,2860,2853,2842,2834,2822,2814,2803,2794,2784,2776,2766,2760,2751,2745,2737,2731,2723,2715,2707,2698,2687,2677,2664,2652,2638,2624,2610,2597,2582,2568,2554,2541,2527,2516,2507,2501,2500,2507,2520,2539,2564,2596,2631,2668,2707,2743,2778,2808,2831,2848,2858,2863,2863,2857,2849,2839,2827,2814,2802,2789,2776,2762,2749,2736,2725,2716,2707,2697,2689,2680,2671,2663,2655,2646,2637,2625,2614,2601,2590,2575,2561,2548,2535,2521,2507,2493,2482,2467,2456,2446,2442,2441,2449,2461,2482,2509,2543,2579,2621,2663,2707,2744,2781,2809,2830,2843,2851,2851,2850,2843,2835,2822,2810,2794,2782,2768,2756,2743,2733,2721,2715,2705,2700,2693,2688,2681,2676,2669,2662,2652,2645,2631,2619,2606,2594,2580,2567,2552,2541,2526,2512,2498,2488,2476,2466,2459,2459,2463,2476,2495,2523,2554,2593,2632,2676,2718,2760,2795,2827,2850,2866,2875,2879,2876,2872,2862,2851,2837,2823,2808,2795,2781,2768,2756,2746,2735,2727,2719,2715,2708,2703,2696,2688,2681,2672,2660,2650,2639,2625,2610,2596,2579,2565,2551,2535,2521,2507,2492,2480,2472,2470,2473,2483,2502,2525,2556,2593,2635,2680,2726,2768,2808,2843,2870,2889,2904,2911,2913,2909,2904,2893,2883,2870,2857,2843,2830,2816,2802,2788,2776,2764,2754,2742,2733,2723,2715,2705,2695,2684,2672,2658,2645,2628,2614,2597,2582,2565,2550,2533,2519,2503,2489,2474,2462,2449,2440,2433,2433,2436,2448,2467,2495,2528,2569,2610,2657,2705,2750,2792,2830,2859,2884,2898,2909,2911,2913,2908,2902,2893,2884,2872,2861,2849,2838,2827,2818,2806,2798,2788,2780,2770,2761,2750,2742,2731,2721,2707,2695,2679,2666,2649,2634,2617,2603,2586,2570,2554,2541,2526,2514,2499,2487,2474,2463,2451,2443,2437,2438,2444,2458,2477,2505,2536,2576,2618,2663,2707,2752,2790,2824,2850,2870,2883,2892,2894,2893,2888,2881,2870,2859,2846,2833,2821,2808,2796,2785,2773,2762,2751,2742,2733,2724,2715,2706,2696,2685,2675,2662,2649,2634,2620,2603,2588,2572,2556,2539,2523,2508,2494,2481,2469,2456,2445,2435,2426,2417,2413,2409,2412,2419,2434,2455,2485,2519,2560,2603,2650,2697,2742,2786,2824,2853,2878,2894,2904,2910,2911,2904,2899,2889,2879,2866,2854,2841,2830,2816,2805,2794,2785,2774,2766,2756,2748,2737,2729,2717,2709,2695,2683,2669,2655,2639,2625,2608,2594,2576,2561,2542,2529,2510,2498,2484,2473,2459,2448,2437,2430,2421,2415,2412,2416,2422,2439,2460,2491,2527,2569,2612,2662,2711,2760,2804,2845,2875,2901,2917,2928,2932,2933,2927,2921,2911,2899,2885,2872,2857,2845,2833,2822,2811,2803,2791,2783,2774,2767,2759,2751,2741,2732,2719,2707,2692,2679,2663,2648,2632,2617,2602,2586,2570,2555,2540,2527,2513,2500,2489,2478,2466,2457,2451,2450,2455,2465,2483,2507,2541,2578,2620,2666,2715,2763,2809,2850,2886,2914,2936,2948,2954,2953,2951,2942,2932,2918,2902,2885,2871,2854,2841,2827,2816,2804,2797,2788,2784,2777,2771,2765,2759,2750,2742,2731,2720,2706,2693,2676,2661,2644,2627,2609,2591,2573,2557,2538,2523,2507,2494,2483,2481,2483,2496,2516,2546,2581,2626,2672,2726,2779,2835,2884,2931,2966,2997,3014,3025,3026,3024,3012,3000,2979,2959,2935,2913,2887,2868,2846,2828,2808,2791,2774,2761,2747,2736,2723,2714,2700,2690,2676,2663,2647,2632,2612,2595,2576,2558,2540,2524,2506,2492,2476,2463,2451,2443,2436,2435,2439,2450,2467,2495,2528,2569,2614,2664,2713,2764,2812,2855,2892,2924,2946,2963,2973,2979,2979,2975,2969,2959,2948,2937,2924,2912,2899,2885,2872,2861,2851,2841,2832,2823,2813,2802,2791,2779,2768,2754,2739,2724,2708,2690,2673,2655,2636,2619,2603,2585,2569,2555,2546,2541,2544,2553,2572,2597,2628,2663,2705,2747,2791,2830,2867,2896,2921,2936,2945,2945,2942,2934,2922,2906,2890,2871,2853,2832,2814,2792,2776,2757,2741,2725,2713,2700,2690,2678,2669,2659,2654,2644,2635,2624,2615,2601,2592,2578,2568,2555,2544,2529,2519,2505,2497,2485,2480,2475,2479,2485,2502,2522,2557,2592,2636,2682,2732,2782,2832,2874,2913,2943,2966,2979,2987,2987,2982,2971,2958,2940,2922,2902,2883,2862,2845,2826,2810,2794,2781,2766,2754,2742,2730,2717,2706,2691,2677,2660,2646,2627,2610,2594,2577,2558,2543,2526,2511,2494,2480,2464,2452,2441,2433,2430,2433,2443,2462,2489,2525,2564,2610,2658,2708,2757,2802,2842,2875,2899,2913,2921,2923,2919,2911,2898,2883,2866,2848,2829,2811,2794,2776,2759,2743,2727,2712,2699,2685,2674,2661,2648,2636,2623,2609,2595,2580,2565,2549,2533,2516,2501,2485,2469,2455,2443,2430,2420,2409,2402,2395,2391,2390,2396,2405,2423,2446,2476,2511,2552,2593,2639,2682,2725,2761,2794,2817,2835,2843,2847,2843,2837,2825,2814,2797,2783,2766,2750,2734,2720,2706,2694,2681,2673,2660,2654,2644,2639,2630,2624,2615,2607,2597,2589,2576,2567,2553,2543,2528,2517,2504,2495,2485,2477,2466,2460,2450,2445,2436,2433,2430,2432,2438,2450,2467,2493,2521,2558,2594,2636,2676,2718,2752,2783,2808,2826,2837,2843,2842,2838,2830,2821,2807,2796,2782,2770,2759,2750,2740,2732,2724,2719,2713,2710,2706,2704,2700,2695,2689,2683,2675,2667,2656,2646,2635,2624,2612,2600,2589,2577,2564,2553,2543,2533,2524,2516,2511,2508,2511,2519,2535,2556,2584,2616,2652,2690,2730,2769,2806,2839,2865,2883,2898,2904,2907,2904,2897,2886,2876,2862,2849,2835,2823,2810,2800,2789,2781,2773,2768,2760,2756,2751,2748,2743,2737,2728,2723,2713,2703,2691,2681,2668,2656,2643,2631,2618,2608,2593,2583,2572,2563,2553,2547,2540,2541,2542,2554,2568,2593,2619,2654,2689,2729,2767,2806,2840,2872,2894,2913,2922,2929,2927,2925,2919,2912,2901,2891,2878,2867,2854,2846,2833,2825,2814,2806,2796,2791,2783,2778,2770,2765,2755,2749,2738,2728,2716,2706,2692,2679,2665,2651,2636,2624,2609,2597,2582,2571,2558,2548,2537,2529,2521,2517,2516,2523,2535,2555,2578,2608,2642,2681,2721,2762,2802,2837,2865,2889,2906,2918,2922,2923,2917,2912,2904,2893,2881,2870,2857,2847,2835,2824,2814,2804,2794,2786,2779,2770,2764,2756,2747,2739,2732,2723,2713,2702,2689,2676,2662,2647,2633,2619,2605,2591,2578,2564,2553,2541,2530,2519,2510,2500,2492,2484,2479,2475,2477,2482,2496,2516,2542,2572,2609,2649,2694,2736,2779,2816,2851,2878,2900,2913,2923,2925,2924,2918,2912,2902,2892,2878,2868,2855,2845,2832,2822,2811,2803,2793,2786,2778,2773,2765,2759,2749,2741,2729,2720,2707,2696,2682,2669,2653,2640,2624,2611,2594,2583,2566,2554,2539,2527,2514,2504,2490,2481,2468,2461,2448,2443,2435,2435,2438,2449,2465,2493,2522,2563,2605,2654,2703,2753,2798,2842,2877,2908,2929,2947,2954,2960,2959,2956,2949,2941,2931,2923,2912,2905,2896,2889,2880,2875,2870,2866,2861,2857,2850,2844,2834,2825,2811,2798,2782,2763,2745,2726,2707,2687,2666,2648,2628,2609,2592,2575,2558,2540,2523,2506,2492,2480,2471,2471,2477,2490,2512,2540,2577,2617,2662,2710,2757,2799,2838,2868,2894,2910,2919,2922,2919,2909,2899,2885,2871,2853,2837,2820,2806,2791,2779,2768,2760,2751,2746,2737,2733,2726,2719,2709,2699,2688,2677,2663,2651,2635,2623,2606,2592,2576,2563,2549,2536,2522,2511,2500,2490,2481,2478,2478,2486,2497,2520,2546,2581,2617,2659,2703,2749,2789,2829,2859,2886,2901,2911,2910,2907,2895,2881,2861,2842,2821,2801,2780,2763,2745,2735,2722,2716,2709,2706,2700,2698,2693,2690,2684,2680,2671,2663,2650,2640,2625,2612,2598,2585,2570,2558,2544,2533,2522,2514,2503,2499,2497,2502,2513,2532,2557,2590,2625,2668,2712,2760,2806,2850,2889,2922,2946,2962,2970,2973,2969,2960,2946,2930,2909,2888,2865,2843,2821,2803,2785,2768,2753,2741,2730,2721,2713,2704,2696,2688,2679,2668,2655,2641,2627,2610,2593,2576,2558,2539,2520,2500,2480,2461,2445,2432,2428,2429,2439,2458,2485,2519,2563,2611,2664,2717,2770,2815,2857,2888,2913,2928,2936,2935,2931,2919,2905,2886,2868,2847,2827,2806,2788,2769,2752,2733,2720,2704,2693,2680,2671,2661,2652,2640,2629,2617,2607,2592,2580,2562,2546,2529,2514,2495,2480,2463,2449,2432,2419,2407,2402,2400,2407,2421,2447,2476,2515,2557,2605,2654,2704,2749,2792,2826,2854,2871,2885,2886,2887,2879,2871,2858,2846,2831,2817,2798,2782,2765,2751,2735,2723,2708,2697,2684,2674,2663,2656,2645,2637,2626,2616,2605,2593,2579,2567,2551,2537,2521,2507,2492,2479,2464,2452,2438,2427,2417,2410,2406,2409,2419,2437,2460,2493,2530,2571,2616,2662,2708,2751,2788,2818,2839,2854,2863,2864,2860,2854,2844,2832,2819,2805,2792,2779,2766,2752,2741,2730,2720,2712,2704,2696,2690,2684,2678,2670,2664,2656,2648,2638,2629,2618,2607,2594,2583,2570,2558,2547,2538,2528,2520,2512,2507,2501,2497,2493,2491,2490,2493,2498,2509,2525,2549,2575,2608,2643,2681,2720,2760,2796,2829,2855,2877,2887,2894,2892,2889,2881,2873,2859,2846,2830,2816,2800,2789,2776,2767,2755,2746,2736,2730,2722,2717,2712,2708,2701,2696,2689,2684,2675,2669,2659,2651,2639,2629,2617,2606,2593,2581,2568,2558,2544,2535,2522,2514,2504,2498,2492,2493,2498,2513,2532,2559,2592,2629,2670,2714,2755,2800,2837,2871,2894,2911,2917,2919,2913,2905,2890,2876,2857,2841,2822,2804,2788,2775,2761,2751,2740,2731,2723,2716,2709,2705,2699,2693,2687,2679,2670,2663,2651,2639,2627,2613,2599,2585,2571,2555,2541,2526,2510,2497,2486,2475,2466,2462,2464,2473,2489,2511,2540,2574,2611,2650,2692,2732,2769,2798,2824,2841,2852,2858,2858,2854,2849,2838,2827,2815,2804,2792,2781,2770,2762,2754,2749,2743,2741,2740,2738,2736,2736,2735,2733,2728,2723,2714,2706,2694,2684,2670,2659,2644,2632,2617,2605,2590,2579,2565,2555,2546,2546,2547,2560,2577,2602,2629,2663,2697,2734,2769,2804,2831,2854,2868,2876,2876,2874,2865,2856,2841,2828,2810,2795,2776,2762,2747,2734,2722,2714,2705,2699,2692,2689,2684,2683,2678,2676,2670,2667,2659,2653,2645,2639,2628,2618,2606,2597,2584,2572,2560,2549,2541,2541,2545,2556,2575,2600,2629,2663,2699,2738,2777,2813,2842,2868,2885,2895,2898,2897,2890,2881,2867,2853,2837,2821,2804,2790,2775,2761,2749,2740,2731,2724,2718,2715,2711,2706,2702,2698,2694,2688,2682,2674,2664,2654,2643,2630,2619,2606,2593,2580,2568,2556,2549,2550,2558,2571,2594,2621,2654,2690,2730,2770,2812,2848,2879,2902,2920,2930,2936,2935,2930,2921,2911,2897,2884,2871,2859,2846,2836,2824,2816,2808,2802,2795,2792,2787,2785,2779,2775,2766,2761,2751,2742,2730,2718,2703,2689,2671,2656,2638,2623,2603,2586,2570,2562,2556,2559,2567,2585,2607,2637,2668,2707,2744,2786,2819,2851,2875,2895,2905,2910,2908,2904,2891,2879,2863,2847,2829,2811,2793,2779,2764,2752,2740,2732,2724,2719,2712,2709,2705,2701,2694,2689,2681,2672,2661,2649,2637,2625,2610,2596,2581,2566,2550,2536,2521,2508,2497,2493,2492,2501,2516,2539,2568,2603,2642,2686,2730,2773,2811,2845,2871,2890,2902,2906,2904,2898,2886,2872,2855,2838,2818,2799,2780,2763,2747,2731,2718,2705,2695,2686,2678,2670,2661,2653,2644,2634,2623,2610,2596,2582,2567,2551,2535,2519,2503,2484,2468,2452,2438,2422,2409,2398,2396,2399,2412,2431,2459,2494,2536,2582,2632,2683,2734,2778,2818,2849,2874,2889,2898,2899,2896,2887,2874,2858,2842,2824,2807,2789,2775,2759,2747,2733,2724,2716,2710,2703,2699,2692,2687,2678,2671,2662,2654,2642,2631,2616,2603,2588,2574,2557,2543,2527,2513,2498,2487,4,2,5
2580,2608,2631,2697,2751,2783,2819,2852,2880,2905,2920,2933,2937,2940,2940,2931,2923,2917,2910,2905,2895,2877,2866,2846,2815,2793,2782,2770,2758,2749,2732,2723,2708,2696,2686,2675,2665,2652,2640,2627,2603,2591,2581,2572,2565,2558,2551,2543,2539,2530,2526,2529,2533,2543,2559,2580,2606,2635,2670,2705,2744,2782,2819,2854,2881,2911,2940,2942,2944,2938,2934,2925,2914,2904,2886,2864,2853,2839,2826,2811,2799,2784,2770,2756,2743,2729,2704,2693,2684,2673,2666,2648,2628,2617,2606,2592,2579,2564,2538,2525,2514,2504,2493,2481,2476,2474,2470,2471,2469,2471,2486,2504,2522,2547,2574,2607,2640,2679,2710,2773,2817,2847,2875,2878,2883,2878,2864,2857,2846,2839,2822,2805,2791,2771,2765,2753,2746,2735,2727,2717,2709,2703,2692,2678,2663,2656,2646,2637,2628,2621,2606,2589,2580,2569,2554,2544,2539,2531,2520,2520,2525,2527,2544,2586,2612,2643,2713,2759,2790,2842,2885,2899,2912,2915,2910,2893,2880,2859,2831,2811,2802,2789,2764,2752,2743,2733,2712,2691,2671,2657,2650,2639,2629,2607,2596,2587,2578,2559,2537,2526,2518,2503,2498,2486,2482,2477,2483,2497,2506,2538,2590,2621,2659,2694,2763,2800,2823,2845,2859,2866,2864,2855,2845,2822,2807,2795,2784,2761,2740,2730,2717,2705,2693,2684,2663,2648,2640,2631,2618,2603,2594,2573,2559,2550,2539,2519,2505,2499,2486,2471,2467,2458,2453,2446,2436,2431,2437,2456,2500,2552,2582,2618,2652,2687,2719,2747,2769,2782,2793,2798,2790,2773,2763,2750,2740,2724,2707,2697,2684,2680,2673,2664,2653,2648,2644,2639,2630,2613,2605,2596,2575,2563,2544,2532,2524,2517,2510,2499,2495,2493,2487,2484,2486,2489,2495,2518,2548,2573,2630,2693,2725,2749,2772,2789,2804,2814,2812,2801,2786,2776,2769,2756,2744,2737,2729,2717,2703,2696,2687,2681,2673,2660,2645,2637,2629,2614,2607,2600,2585,2577,2565,2559,2557,2551,2546,2544,2541,2538,2535,2531,2532,2534,2541,2548,2569,2606,2634,2691,2716,2766,2797,2809,2824,2834,2831,2825,2819,2806,2791,2777,2772,2763,2750,2744,2737,2729,2724,2717,2712,2707,2697,2685,2676,2670,2660,2647,2643,2638,2633,2628,2621,2616,2614,2612,2612,2609,2608,2601,2588,2580,2574,2575,2589,2604,2624,2648,2674,2703,2734,2760,2804,2841,2851,2864,2869,2869,2869,2861,2854,2849,2846,2842,2832,2819,2813,2806,2791,2782,2776,2770,2765,2759,2750,2738,2731,2723,2716,2699,2687,2676,2663,2659,2651,2640,2638,2635,2631,2626,2620,2614,2608,2605,2614,2625,2638,2677,2706,2729,2755,2781,2804,2831,2863,2869,2873,2873,2862,2852,2846,2834,2819,2811,2795,2789,2781,2767,2750,2735,2726,2718,2705,2698,2693,2683,2675,2660,2648,2641,2633,2625,2617,2609,2604,2597,2587,2582,2579,2571,2565,2563,2556,2551,2549,2546,2543,2538,2533,2536,2549,2582,2625,2652,2681,2710,2740,2768,2793,2813,2829,2841,2848,2845,2838,2831,2813,2798,2789,2779,2768,2752,2745,2737,2729,2721,2712,2705,2692,2673,2655,2645,2633,2610,2599,2589,2579,2565,2551,2543,2534,2531,2526,2527,2528,2528,2531,2534,2542,2556,2568,2582,2604,2669,2716,2759,2809,2859,2911,2961,3010,3054,3091,3143,3167,3169,3155,3139,3122,3093,3081,3070,3048,3039,3027,3018,3013,3004,2997,2994,2992,2979,2972,2958,2947,2939,2929,2920,2910,2900,2888,2868,2858,2849,2841,2834,2827,2821,2816,2813,2811,2815,2822,2843,2862,2880,2906,2939,2976,3022,3124,3182,3230,3274,3351,3419,3444,3472,3488,3499,3494,3480,3461,3442,3390,3338,3287,3201,3155,3057,3006,2961,2912,2864,2814,2773,2714,2630,2590,2516,2477,2452,2403,2365,2347,2327,2309,2292,2264,2243,2236,2236,2248,2287,2329,2353,2391,2457,2512,2535,2550,2561,2567,2567,2558,2546,2540,2525,2515,2510,2508,2508,2508,2508,2507,2508,2510,2517,2523,2527,2528,2528,2528,2525,2520,2516,2511,2503,2494,2487,2483,2479,2472,2465,2462,2459,2456,2455,2456,2470,2485,2500,2521,2543,2570,2596,2625,2650,2695,2720,2735,2746,2743,2734,2719,2712,2704,2690,2678,2663,2655,2647,2637,2632,2621,2617,2614,2609,2600,2594,2590,2580,2570,2565,2560,2553,2547,2536,2530,2526,2519,2512,2508,2504,2501,2503,2518,2534,2550,2569,2592,2613,2643,2690,2711,2727,2750,2758,2756,2751,2746,2736,2720,2712,2703,2697,2682,2673,2668,2658,2646,2638,2633,2625,2620,2617,2612,2608,2603,2598,2588,2576,2570,2562,2551,2542,2536,2533,2531,2528,2526,2526,2529,2534,2544,2557,2574,2594,2619,2642,2677,2735,2759,2783,2803,2827,2840,2842,2838,2831,2824,2811,2796,2790,2784,2779,2768,2750,2738,2731,2722,2715,2702,2694,2688,2682,2672,2657,2645,2639,2630,2617,2611,2605,2599,2594,2590,2582,2575,2571,2565,2564,2564,2566,2584,2600,2632,2674,2694,2723,2772,2793,2809,2822,2830,2834,2835,2832,2828,2821,2817,2810,2803,2796,2791,2784,2776,2770,2763,2756,2747,2738,2730,2715,2704,2699,2690,2679,2674,2661,2654,2649,2642,2636,2629,2621,2614,2608,2601,2587,2581,2579,2570,2561,2556,2554,2552,2549,2549,2554,2560,2573,2586,2618,2672,2718,2743,2771,2796,2816,2842,2852,2854,2847,2836,2830,2822,2816,2809,2796,2788,2770,2756,2749,2732,2713,2705,2695,2685,2675,2666,2658,2641,2623,2611,2596,2583,2567,2536,2520,2507,2495,2484,2475,2468,2462,2459,2457,2455,2455,2455,2458,2461,2463,2466,2470,2473,2479,2487,2498,2513,2528,2568,2619,2647,2683,2716,2751,2782,2808,2845,2869,2873,2877,2876,2877,2872,2869,2864,2858,2852,2847,2840,2834,2829,2817,2810,2795,2786,2781,2770,2763,2760,2752,2741,2736,2728,2722,2713,2706,2697,2688,2679,2661,2646,2638,2634,2627,2618,2608,2602,2600,2593,2585,2584,2588,2596,2609,2623,2657,2715,2762,2795,2846,2862,2884,2889,2888,2878,2868,2860,2849,2839,2828,2811,2795,2780,2773,2766,2758,2755,2752,2748,2746,2741,2736,2730,2716,2705,2697,2687,2678,2666,2647,2639,2629,2623,2615,2608,2601,2590,2586,2582,2576,2575,2574,2577,2584,2596,2610,2637,2686,2715,2773,2804,2827,2849,2863,2873,2878,2879,2875,2869,2859,2840,2829,2820,2810,2802,2790,2773,2767,2758,2740,2731,2725,2717,2709,2703,2697,2684,2677,2671,2664,2657,2650,2643,2633,2618,2610,2604,2596,2585,2579,2574,2570,2564,2557,2555,2557,2563,2572,2588,2608,2632,2659,2689,2721,2753,2785,2813,2862,2882,2890,2893,2890,2883,2871,2850,2830,2821,2812,2793,2780,2770,2761,2748,2729,2720,2714,2706,2699,2687,2678,2668,2656,2649,2639,2630,2620,2612,2594,2581,2574,2565,2557,2550,2543,2539,2532,2529,2523,2520,2517,2515,2515,2518,2526,2540,2559,2581,2611,2635,2693,2756,2786,2817,2846,2885,2896,2900,2898,2894,2886,2875,2864,2851,2842,2829,2809,2797,2788,2770,2754,2744,2732,2722,2701,2683,2672,2667,2659,2651,2643,2635,2628,2617,2609,2600,2592,2582,2574,2565,2555,2549,2540,2535,2528,2523,2518,2516,2512,2510,2511,2511,2514,2517,2527,2536,2552,2572,2597,2626,2660,2697,2735,2775,2812,2850,2879,2919,2948,2950,2950,2944,2931,2916,2899,2882,2863,2844,2827,2810,2794,2777,2763,2749,2721,2689,2673,2653,2630,2619,2610,2597,2575,2566,2555,2544,2534,2523,2513,2502,2495,2484,2478,2469,2459,2453,2450,2446,2445,2445,2450,2466,2478,2524,2561,2590,2629,2663,2711,2781,2809,2833,2853,2864,2870,2869,2863,2854,2843,2831,2819,2808,2795,2785,2775,2766,2755,2743,2738,2733,2727,2723,2716,2713,2705,2698,2692,2682,2672,2658,2647,2632,2619,2604,2588,2574,2561,2550,2539,2530,2523,2520,2515,2510,2511,2514,2517,2525,2535,2552,2573,2601,2630,2663,2699,2736,2772,2806,2839,2866,2890,2906,2917,2921,2921,2917,2908,2901,2888,2879,2868,2858,2846,2836,2827,2819,2812,2802,2785,2777,2769,2755,2746,2743,2735,2726,2722,2716,2712,2705,2700,2694,2679,2665,2656,2645,2635,2621,2611,2600,2590,2580,2572,2567,2563,2566,2573,2587,2604,2630,2659,2692,2727,2763,2800,2836,2871,2899,2924,2941,2954,2962,2965,2963,2957,2951,2940,2931,2919,2910,2898,2885,2873,2860,2848,2832,2822,2808,2796,2782,2772,2761,2749,2741,2730,2722,2709,2700,2687,2674,2662,2648,2636,2618,2588,2563,2551,2539,2530,2516,2504,2500,2496,2493,2497,2502,2514,2530,2553,2579,2607,2640,2669,2708,2769,2794,2813,2827,2836,2839,2838,2834,2824,2816,2803,2794,2770,2753,2744,2732,2719,2707,2692,2681,2666,2654,2641,2630,2618,2609,2600,2591,2587,2579,2576,2570,2565,2560,2557,2552,2546,2544,2538,2535,2529,2520,2515,2510,2505,2501,2495,2493,2491,2501,2515,2530,2552,2577,2604,2634,2662,2697,2753,2775,2794,2806,2813,2816,2814,2812,2806,2799,2789,2782,2771,2761,2750,2739,2729,2717,2707,2695,2684,2671,2663,2653,2644,2637,2629,2624,2615,2609,2601,2596,2587,2580,2572,2564,2557,2548,2544,2535,2530,2524,2520,2516,2513,2510,2507,2507,2503,2513,2526,2541,2557,2601,2648,2675,2708,2739,2770,2794,2816,2830,2840,2844,2844,2840,2833,2827,2816,2806,2794,2785,2774,2763,2753,2740,2731,2718,2707,2693,2681,2668,2656,2645,2634,2624,2613,2608,2598,2591,2581,2573,2564,2555,2546,2536,2528,2519,2511,2501,2493,2486,2480,2476,2470,2468,2464,2463,2459,2461,2465,2472,2484,2500,2521,2544,2573,2601,2632,2663,2697,2727,2753,2775,2790,2803,2808,2811,2809,2806,2799,2793,2787,2778,2772,2764,2759,2752,2746,2739,2733,2726,2717,2712,2701,2695,2689,2678,2673,2668,2663,2657,2650,2646,2638,2632,2624,2617,2608,2601,2591,2576,2571,2567,2560,2557,2552,2549,2548,2548,2553,2562,2577,2593,2615,2638,2668,2696,2727,2756,2783,2810,2831,2848,2858,2868,2871,2872,2868,2864,2860,2854,2848,2840,2836,2828,2823,2817,2810,2803,2793,2784,2775,2767,2758,2751,2742,2737,2731,2722,2716,2708,2703,2697,2691,2684,2676,2668,2662,2656,2647,2641,2632,2625,2617,2611,2605,2598,2593,2587,2582,2576,2572,2569,2571,2578,2590,2606,2621,2653,2706,2732,2762,2791,2819,2842,2861,2874,2881,2888,2887,2883,2876,2871,2862,2854,2846,2837,2829,2818,2811,2800,2791,2780,2770,2759,2748,2738,2727,2720,2709,2704,2695,2690,2682,2673,2667,2661,2653,2648,2638,2633,2625,2619,2611,2603,2596,2588,2582,2575,2570,2564,2560,2554,2549,2545,2540,2537,2532,2529,2525,2523,2522,2527,2537,2550,2570,2595,2623,2651,2685,2717,2751,2783,2812,2837,2854,2865,2871,2873,2869,2864,2854,2846,2836,2825,2818,2808,2800,2793,2786,2777,2770,2762,2752,2744,2732,2724,2714,2705,2695,2688,2680,2673,2666,2659,2653,2644,2640,2632,2625,2618,2612,2604,2595,2590,2583,2578,2572,2568,2563,2562,2559,2556,2558,2557,2558,2557,2559,2558,2560,2560,2559,2558,2558,2562,2563,2571,2582,2598,2619,2645,2674,2706,2743,2778,2814,2845,2875,2898,2918,2931,2937,2937,2932,2927,2916,2905,2892,2881,2870,2860,2850,2840,2833,2824,2818,2807,2800,2790,2781,2772,2763,2755,2747,2740,2731,2724,2716,2710,2703,2695,2688,2678,2672,2663,2656,2645,2637,2628,2620,2613,2605,2599,2591,2587,2580,2576,2571,2568,2565,2562,2560,2556,2555,2553,2557,2563,2575,2591,2611,2636,2663,2695,2727,2760,2791,2821,2847,2868,2884,2893,2898,2896,2891,2882,2871,2858,2847,2836,2824,2813,2803,2797,2787,2782,2775,2771,2767,2763,2763,2761,2765,2768,2777,2783,2794,2803,2812,2821,2825,2832,2834,2834,2830,2823,2812,2801,2786,2769,2753,2734,2718,2700,2685,2672,2646,2625,2615,2603,2594,2583,2576,2567,2565,2566,2574,2588,2606,2631,2657,2689,2719,2753,2785,2816,2843,2864,2882,2891,2896,2894,2890,2881,2871,2861,2851,2840,2828,2820,2809,2802,2792,2785,2777,2769,2762,2753,2746,2738,2731,2724,2719,2714,2705,2698,2694,2687,2681,2673,2666,2657,2650,2641,2633,2623,2614,2606,2595,2589,2582,2576,2570,2566,2561,2557,2552,2547,2545,2540,2539,2536,2536,2538,2543,2554,2569,2591,2615,2647,2678,2714,2748,2783,2817,2846,2870,2888,2901,2905,2906,2901,2893,2883,2871,2859,2846,2834,2823,2813,2803,2794,2785,2776,2768,2760,2754,2747,2743,2736,2732,2726,2722,2719,2715,2712,2709,2704,2699,2694,2686,2680,2674,2666,2659,2650,2644,2635,2629,2624,2618,2611,2605,2601,2594,2589,2583,2580,2572,2569,2563,2558,2555,2553,2554,2560,2571,2586,2608,2633,2664,2696,2728,2764,2796,2827,2853,2875,2889,2901,2905,2905,2902,2895,2889,2881,2875,2867,2862,2855,2850,2846,2842,2838,2832,2827,2820,2815,2808,2801,2794,2788,2782,2774,2768,2761,2754,2747,2739,2730,2720,2712,2701,2692,2681,2673,2663,2654,2644,2634,2625,2615,2606,2596,2588,2580,2571,2560,2551,2542,2532,2523,2512,2501,2490,2484,2479,2479,2485,2496,2514,2536,2562,2590,2623,2655,2687,2716,2742,2763,2777,2786,2786,2783,2776,2766,2755,2743,2730,2717,2704,2692,2683,2672,2665,2657,2649,2641,2632,2623,2615,2607,2599,2591,2580,2569,2556,2542,2527,2511,2494,2476,2458,2440,2421,2402,2386,2369,2354,2342,2329,2322,2314,2310,2305,2303,2303,2305,2307,2311,2319,2328,2344,2363,2389,2419,2451,2489,2528,2569,2609,2651,2687,2723,2752,2774,2789,2797,2800,2798,2791,2780,2770,2756,2741,2726,2710,2696,2683,2672,2661,2653,2644,2638,2633,2628,2624,2622,2620,2617,2614,2610,2604,2597,2590,2580,2569,2559,2547,2535,2523,2512,2501,2492,2484,2476,2470,2464,2461,2456,2453,2450,2451,2452,2454,2460,2470,2486,2507,2535,2566,2601,2641,2684,2724,2763,2805,2840,2871,2895,2913,2925,2930,2931,2927,2920,2911,2903,2893,2884,2876,2870,2865,2862,2859,2857,2856,2853,2851,2847,2844,2841,2837,2832,2826,2820,2812,2806,2798,2790,2781,2772,2763,2754,2748,2740,2735,2730,2726,2722,2719,2717,2716,2715,2713,2710,2703,2698,2690,2684,2679,2677,2682,2692,2709,2731,2760,2791,2829,2867,2905,2941,2974,3004,3025,3037,3043,3043,3036,3025,3012,2998,2984,2969,2953,2938,2924,2910,2897,2883,2870,2856,2842,2828,2813,2800,2788,2776,2764,2754,2743,2732,2722,2710,2698,2685,2673,2659,2646,2632,2619,2607,2595,2584,2573,2563,2554,2545,2537,2530,2523,2517,2512,2507,2502,2498,2493,2488,2484,2482,2483,2487,2494,2507,2525,2547,2576,2608,2642,2680,2718,2755,2789,2817,2841,2859,2869,2875,2874,2867,2859,2849,2836,2823,2810,2798,2788,2778,2769,2761,2752,2745,2738,2730,2722,2717,2711,2704,2697,2690,2684,2676,2668,2660,2651,2642,2632,2620,2609,2598,2588,2579,2570,2561,2554,2547,2543,2539,2535,2534,2534,2534,2533,2534,2533,2534,2535,2535,2536,2536,2539,2545,2552,2565,2583,2607,2636,2667,2701,2738,2775,2812,2847,2876,2903,2922,2934,2939,2938,2933,2924,2912,2897,2882,2867,2852,2839,2828,2820,2813,2808,2807,2808,2810,2815,2820,2825,2832,2839,2845,2850,2851,2851,2847,2842,2834,2824,2813,2801,2786,2771,2755,2740,2726,2712,2699,2685,2672,2657,2645,2631,2617,2604,2591,2578,2566,2556,2550,2549,2553,2563,2579,2599,2623,2650,2677,2706,2733,2758,2779,2796,2807,2812,2809,2803,2793,2781,2767,2753,2738,2723,2710,2696,2683,2671,2662,2653,2645,2638,2631,2626,2620,2615,2611,2608,2603,2600,2594,2589,2582,2574,2565,2556,2547,2537,2527,2518,2511,2502,2496,2490,2484,2481,2478,2474,2471,2470,2468,2468,2467,2467,2470,2477,2488,2502,2523,2550,2581,2614,2650,2688,2726,2762,2796,2825,2848,2865,2876,2879,2877,2872,2863,2851,2838,2825,2813,2800,2790,2777,2766,2757,2747,2738,2728,2719,2711,2703,2696,2690,2683,2676,2670,2663,2657,2649,2642,2634,2625,2616,2607,2597,2587,2576,2566,2558,2549,2542,2535,2530,2524,2518,2515,2510,2507,2504,2501,2498,2496,2495,2494,2497,2504,2517,2534,2558,2585,2616,2650,2686,2723,2758,2792,2822,2846,2864,2876,2880,2880,2876,2869,2860,2848,2837,2827,2816,2804,2794,2784,2776,2768,2758,2750,2740,2733,2724,2716,2708,2702,2695,2688,2683,2674,2668,2661,2654,2645,2636,2627,2618,2608,2596,2587,2574,2561,2547,2529,2508,2486,2461,2431,2401,2370,2341,2311,2282,2256,2234,2216,2202,2194,2191,2199,2212,2234,2262,2299,2341,2388,2438,2489,2542,2593,2643,2688,2728,2763,2791,2814,2830,2843,2850,2858,2862,2866,2870,2873,2874,2876,2877,2876,2878,2877,2878,2876,2874,2873,2870,2868,2865,2864,2860,2858,2855,2849,2843,2838,2832,2823,2815,2806,2800,2790,2783,2774,2767,2760,2752,2747,2739,2735,2730,2727,2721,2717,2714,2710,2708,2703,2700,2695,2693,2689,2690,2694,2703,2718,2735,2759,2784,2815,2845,2876,2907,2937,2963,2983,2998,3006,3009,3007,3002,2990,2978,2965,2951,2937,2922,2909,2895,2884,2873,2863,2852,2841,2832,2822,2814,2804,2796,2788,2781,2772,2763,2754,2743,2733,2720,2708,2693,2679,2664,2650,2636,2623,2611,2598,2588,10,11,8
2330,2369,2417,2474,2538,2610,2684,2759,2832,2900,2958,3006,3042,3070,3085,3097,3097,3095,3088,3081,3069,3057,3043,3027,3010,2994,2975,2958,2938,2920,2900,2881,2860,2843,2823,2804,2784,2765,2745,2724,2700,2679,2656,2634,2611,2589,2567,2546,2526,2508,2490,2475,2461,2448,2437,2427,2416,2408,2400,2393,2386,2380,2376,2373,2377,2388,2410,2442,2482,2532,2588,2651,2716,2782,2847,2907,2962,3005,3038,3062,3077,3085,3087,3087,3082,3074,3064,3051,3037,3023,3006,2987,2969,2949,2929,2909,2888,2866,2847,2827,2808,2788,2769,2749,2727,2706,2683,2660,2638,2615,2593,2569,2548,2527,2508,2487,2471,2454,2441,2426,2414,2401,2392,2383,2380,2383,2396,2416,2448,2489,2538,2594,2655,2719,2785,2848,2908,2959,3003,3037,3063,3081,3094,3101,3105,3105,3104,3098,3092,3083,3071,3054,3037,3015,2993,2968,2944,2917,2891,2862,2836,2810,2787,2762,2739,2714,2689,2664,2641,2616,2594,2570,2546,2523,2502,2479,2459,2440,2423,2406,2391,2375,2362,2350,2338,2327,2320,2314,2313,2320,2336,2361,2399,2445,2498,2559,2624,2691,2762,2828,2890,2945,2991,3027,3058,3081,3099,3112,3120,3126,3130,3128,3123,3113,3102,3086,3067,3044,3020,2992,2963,2931,2901,2870,2839,2809,2780,2751,2722,2694,2665,2638,2611,2587,2562,2537,2513,2490,2467,2445,2425,2405,2387,2369,2351,2335,2320,2306,2292,2281,2269,2259,2250,2241,2232,2224,2216,2208,2202,2197,2191,2186,2181,2176,2172,2169,2170,2177,2193,2217,2254,2303,2365,2435,2513,2596,2683,2771,2854,2932,3001,3059,3105,3140,3167,3187,3202,3211,3217,3219,3218,3213,3206,3194,3179,3160,3138,3113,3086,3057,3026,2994,2963,2931,2900,2869,2838,2808,2777,2748,2720,2693,2667,2639,2610,2585,2560,2536,2512,2489,2469,2448,2428,2410,2394,2377,2363,2349,2336,2324,2312,2301,2289,2279,2269,2259,2251,2244,2236,2229,2224,2220,2221,2229,2245,2272,2308,2356,2414,2479,2550,2626,2704,2781,2854,2920,2974,3020,3056,3083,3101,3114,3123,3128,3128,3124,3119,3112,3100,3085,3070,3052,3030,3007,2981,2956,2929,2902,2877,2850,2825,2798,2772,2748,2725,2701,2678,2654,2630,2607,2585,2563,2543,2524,2503,2484,2467,2451,2435,2421,2408,2396,2386,2374,2365,2356,2347,2338,2330,2322,2315,2311,2311,2318,2335,2362,2397,2445,2499,2561,2626,2695,2765,2833,2893,2948,2992,3027,3054,3073,3084,3092,3095,3094,3090,3085,3074,3061,3045,3028,3008,2989,2966,2944,2920,2896,2872,2848,2826,2805,2783,2761,2738,2716,2690,2667,2644,2621,2597,2573,2551,2529,2508,2488,2469,2453,2438,2424,2410,2399,2389,2377,2367,2358,2350,2345,2344,2352,2368,2396,2432,2479,2535,2597,2660,2729,2799,2866,2927,2980,3023,3058,3084,3103,3115,3125,3129,3130,3127,3123,3114,3101,3085,3067,3047,3024,3000,2973,2945,2917,2887,2860,2833,2805,2779,2754,2728,2701,2677,2652,2627,2602,2577,2553,2531,2508,2485,2464,2444,2424,2406,2389,2374,2359,2346,2334,2323,2311,2302,2295,2292,2296,2308,2331,2365,2410,2463,2526,2596,2669,2745,2820,2891,2955,3010,3055,3091,3119,3139,3154,3165,3171,3174,3173,3171,3164,3154,3140,3122,3100,3075,3047,3019,2989,2958,2925,2895,2864,2834,2805,2778,2751,2725,2699,2675,2648,2625,2602,2580,2557,2536,2516,2497,2479,2464,2446,2430,2415,2401,2389,2378,2366,2355,2345,2336,2325,2317,2308,2300,2291,2285,2280,2282,2292,2313,2345,2388,2442,2506,2573,2649,2726,2805,2882,2952,3011,3062,3103,3134,3158,3178,3190,3200,3205,3206,3203,3198,3189,3179,3163,3145,3122,3100,3075,3048,3020,2992,2962,2935,2906,2879,2852,2825,2796,2770,2744,2718,2692,2666,2641,2616,2592,2570,2548,2527,2506,2486,2467,2451,2437,2422,2408,2394,2382,2376,2375,2383,2400,2426,2459,2499,2545,2596,2651,2707,2762,2813,2859,2895,2924,2946,2962,2973,2980,2984,2986,2984,2981,2975,2967,2956,2942,2925,2910,2892,2871,2849,2827,2804,2783,2763,2742,2722,2703,2681,2660,2638,2620,2600,2582,2561,2541,2521,2501,2482,2464,2447,2431,2413,2398,2383,2374,2371,2376,2389,2411,2439,2475,2514,2559,2606,2654,2700,2743,2779,2808,2830,2846,2857,2865,2867,2869,2869,2866,2861,2856,2847,2837,2823,2810,2794,2779,2760,2741,2723,2706,2687,2669,2651,2636,2618,2603,2586,2569,2551,2533,2514,2497,2480,2464,2446,2431,2415,2400,2385,2374,2362,2351,2342,2333,2324,2318,2310,2310,2316,2330,2353,2386,2425,2470,2518,2569,2622,2675,2725,2769,2804,2830,2850,2863,2871,2875,2877,2877,2876,2872,2866,2860,2852,2842,2831,2819,2806,2792,2778,2763,2748,2733,2720,2708,2695,2681,2669,2658,2645,2631,2618,2604,2591,2575,2561,2547,2533,2519,2505,2491,2481,2468,2458,2448,2440,2434,2434,2440,2453,2475,2503,2536,2574,2614,2657,2698,2740,2776,2807,2831,2850,2862,2869,2872,2875,2874,2873,2867,2863,2857,2850,2840,2831,2820,2810,2794,2781,2769,2758,2746,2734,2722,2713,2700,2689,2676,2666,2652,2639,2624,2611,2597,2584,2569,2558,2544,2532,2519,2509,2498,2488,2479,2470,2465,2467,2476,2494,2515,2546,2576,2614,2652,2692,2732,2770,2802,2829,2850,2867,2876,2884,2887,2891,2892,2893,2891,2888,2883,2876,2868,2859,2849,2838,2825,2811,2797,2784,2769,2757,2744,2732,2721,2709,2698,2687,2675,2663,2650,2638,2625,2611,2596,2582,2568,2554,2539,2526,2512,2500,2488,2476,2465,2456,2446,2436,2428,2419,2411,2403,2395,2388,2383,2377,2370,2364,2359,2356,2357,2365,2383,2412,2450,2494,2546,2601,2659,2719,2777,2830,2876,2913,2941,2960,2972,2978,2981,2982,2980,2979,2978,2974,2971,2965,2958,2949,2940,2927,2915,2901,2886,2870,2855,2840,2826,2811,2798,2784,2772,2758,2747,2733,2719,2705,2691,2674,2661,2646,2632,2616,2602,2584,2571,2557,2546,2532,2522,2509,2499,2487,2479,2469,2461,2452,2445,2435,2427,2419,2413,2403,2397,2388,2383,2376,2371,2364,2360,2356,2352,2349,2356,2369,2394,2427,2473,2525,2584,2645,2711,2775,2839,2896,2945,2985,3013,3029,3040,3044,3045,3041,3039,3034,3029,3022,3015,3007,3001,2990,2980,2968,2955,2941,2927,2911,2896,2880,2865,2849,2835,2819,2806,2790,2775,2759,2743,2727,2711,2694,2678,2661,2645,2628,2611,2594,2578,2565,2550,2536,2523,2510,2498,2486,2475,2465,2456,2447,2437,2427,2419,2411,2403,2397,2389,2382,2376,2369,2363,2358,2353,2350,2345,2345,2347,2356,2375,2406,2447,2500,2561,2625,2692,2762,2830,2896,2954,3002,3037,3062,3074,3079,3078,3074,3068,3060,3048,3038,3027,3016,3003,2988,2974,2961,2945,2928,2910,2894,2876,2859,2841,2826,2810,2793,2774,2758,2739,2723,2703,2685,2665,2647,2627,2609,2591,2577,2560,2545,2530,2518,2505,2496,2485,2477,2467,2459,2450,2445,2438,2431,2425,2420,2412,2407,2401,2396,2390,2387,2384,2386,2394,2413,2442,2483,2531,2588,2647,2711,2774,2838,2897,2950,2990,3018,3033,3043,3044,3041,3034,3025,3013,3001,2986,2972,2957,2943,2927,2911,2894,2878,2863,2848,2832,2817,2802,2789,2775,2761,2746,2731,2714,2697,2679,2661,2642,2624,2605,2587,2568,2551,2536,2522,2508,2496,2485,2475,2466,2457,2450,2445,2439,2435,2436,2444,2461,2489,2527,2572,2623,2679,2737,2795,2855,2908,2955,2991,3018,3034,3042,3045,3042,3037,3031,3021,3012,3000,2989,2975,2960,2943,2927,2909,2892,2870,2852,2832,2815,2796,2780,2762,2746,2727,2711,2691,2674,2652,2634,2612,2591,2568,2548,2529,2512,2493,2478,2462,2451,2438,2429,2418,2411,2401,2396,2391,2395,2404,2428,2459,2501,2548,2605,2664,2729,2792,2856,2913,2964,3001,3031,3049,3063,3067,3069,3065,3061,3054,3047,3036,3026,3012,2999,2982,2966,2946,2927,2905,2884,2861,2839,2815,2795,2771,2751,2729,2710,2688,2668,2645,2625,2602,2582,2560,2540,2518,2498,2478,2460,2444,2429,2414,2401,2390,2379,2368,2361,2352,2346,2340,2336,2336,2346,2367,2399,2442,2493,2552,2617,2686,2755,2826,2893,2951,2997,3034,3060,3078,3088,3094,3095,3094,3090,3085,3078,3068,3057,3045,3029,3012,2992,2972,2949,2926,2901,2878,2855,2830,2805,2782,2757,2733,2708,2684,2659,2634,2608,2583,2557,2532,2509,2487,2464,2444,2423,2405,2387,2371,2356,2344,2331,2321,2309,2300,2291,2284,2275,2269,2262,2258,2251,2247,2241,2237,2232,2232,2233,2243,2260,2293,2336,2394,2459,2535,2615,2704,2791,2878,2956,3028,3084,3130,3162,3186,3197,3205,3204,3203,3196,3190,3179,3169,3155,3138,3119,3100,3077,3055,3030,3005,2977,2951,2921,2894,2865,2838,2809,2783,2753,2724,2693,2665,2635,2609,2580,2553,2527,2501,2477,2456,2435,2417,2398,2383,2367,2353,2340,2330,2319,2310,2299,2292,2283,2276,2271,2266,2259,2255,2253,2258,2270,2294,2331,2380,2439,2507,2582,2663,2746,2827,2905,2975,3034,3079,3112,3135,3148,3153,3152,3149,3141,3131,3119,3104,3088,3070,3050,3026,3004,2978,2952,2925,2900,2870,2843,2816,2789,2760,2735,2708,2684,2659,2633,2604,2580,2554,2530,2506,2485,2461,2441,2420,2402,2384,2370,2354,2344,2332,2322,2310,2303,2294,2289,2282,2278,2271,2267,2260,2257,2253,2254,2257,2272,2295,2333,2380,2443,2511,2588,2667,2749,2830,2907,2974,3031,3070,3101,3117,3126,3125,3121,3111,3101,3085,3069,3050,3033,3011,2992,2968,2948,2923,2903,2880,2861,2839,2821,2800,2784,2764,2746,2724,2706,2683,2662,2637,2616,2593,2571,2549,2529,2507,2490,2471,2457,2442,2430,2419,2409,2400,2391,2383,2378,2374,2377,2385,2406,2435,2476,2523,2582,2647,2715,2784,2855,2919,2977,3025,3064,3091,3108,3116,3117,3114,3107,3096,3083,3065,3045,3026,3006,2984,2961,2937,2912,2890,2868,2845,2825,2806,2783,2761,2740,2719,2699,2676,2650,2626,2602,2579,2555,2531,2509,2487,2464,2445,2427,2413,2397,2385,2372,2362,2352,2346,2338,2336,2337,2349,2370,2403,2447,2502,2563,2633,2703,2780,2855,2925,2988,3040,3080,3111,3128,3142,3146,3146,3141,3133,3121,3110,3093,3076,3054,3036,3009,2987,2959,2932,2903,2879,2849,2823,2796,2771,2742,2719,2691,2668,2639,2616,2589,2565,2538,2514,2489,2468,2445,2427,2406,2393,2376,2362,2347,2334,2323,2317,2314,2321,2337,2367,2406,2458,2514,2580,2650,2724,2794,2867,2931,2985,3025,3059,3080,3097,3107,3112,3112,3111,3104,3095,3084,3073,3057,3041,3020,2998,2972,2946,2918,2889,2860,2835,2806,2776,2748,2722,2694,2667,2641,2615,2590,2564,2536,2511,2486,2462,2439,2418,2399,2379,2361,2344,2328,2315,2303,2294,2282,2271,2264,2260,2263,2273,2296,2331,2378,2434,2497,2568,2645,2722,2800,2872,2936,2989,3032,3063,3087,3102,3111,3116,3118,3113,3108,3100,3092,3077,3062,3041,3020,2996,2971,2944,2918,2888,2860,2829,2802,2776,2750,2721,2697,2669,2644,2616,2591,2564,2541,2515,2491,2467,2446,2424,2405,2386,2370,2352,2340,2325,2314,2302,2292,2281,2275,2265,2260,2252,2248,2241,2239,2239,2249,2266,2298,2337,2392,2452,2522,2594,2673,2750,2827,2895,2956,3004,3042,3068,3088,3097,3103,3103,3102,3095,3089,3078,3066,3051,3036,3015,2997,2975,2954,2929,2906,2880,2854,2829,2804,2779,2756,2731,2706,2680,2658,2632,2608,2585,2562,2538,2517,2495,2477,2456,2439,2420,2405,2391,2378,2365,2355,2344,2336,2325,2317,2310,2304,2298,2292,2288,2283,2279,2277,2280,2292,2314,2347,2392,2447,2508,2575,2645,2718,2789,2855,2916,2966,3003,3027,3041,3048,3051,3048,3042,3033,3024,3010,2997,2983,2969,2952,2935,2917,2899,2882,2864,2843,2827,2809,2793,2774,2757,2739,2723,2704,2684,2664,2646,2625,2608,2589,2571,2553,2538,2521,2508,2494,2484,2471,2462,2452,2445,2436,2429,2421,2416,2408,2402,2397,2398,2404,2422,2446,2484,2528,2580,2634,2695,2755,2816,2872,2920,2958,2987,3004,3016,3018,3017,3010,3003,2992,2982,2970,2958,2943,2929,2912,2898,2881,2866,2848,2833,2816,2801,2785,2770,2753,2738,2721,2704,2686,2669,2649,2630,2610,2591,2571,2555,2536,2520,2504,2491,2477,2465,2453,2443,2433,2425,2416,2408,2403,2404,2413,2432,2461,2499,2544,2595,2650,2708,2767,2825,2877,2921,2954,2979,2994,3002,3006,3004,3000,2994,2987,2979,2969,2961,2950,2936,2922,2907,2893,2877,2860,2843,2827,2810,2792,2775,2759,2742,2727,2709,2693,2675,2657,2637,2618,2600,2582,2563,2547,2528,2512,2495,2482,2469,2457,2445,2435,2424,2415,2406,2400,2393,2392,2394,2408,2429,2463,2502,2551,2602,2658,2714,2773,2827,2879,2920,2952,2973,2988,2993,2998,2995,2994,2989,2985,2977,2970,2959,2952,2939,2928,2914,2902,2885,2869,2851,2836,2817,2803,2784,2770,2753,2739,2720,2705,2688,2672,2653,2639,2620,2605,2585,2568,2548,2533,2515,2501,2485,2472,2456,2445,2431,2422,2413,2405,2395,2389,2380,2374,2369,2372,2382,2405,2437,2478,2524,2578,2634,2694,2753,2812,2865,2909,2942,2967,2980,2990,2993,2995,2992,2988,2984,2978,2971,2964,2955,2946,2935,2922,2907,2894,2878,2862,2844,2827,2810,2793,2775,2757,2741,2726,2708,2691,2674,2656,2638,2620,2603,2585,2567,2550,2532,2515,2499,2483,2469,2457,2445,2431,2421,2411,2403,2393,2387,2379,2372,2364,2357,2350,2346,2342,2342,2351,2372,2403,2445,2494,2552,2613,2676,2740,2805,2864,2916,2955,2984,3002,3014,3018,3019,3015,3013,3005,2998,2990,2981,2969,2957,2942,2929,2912,2898,2879,2864,2845,2828,2809,2793,2776,2761,2742,2727,2708,2691,2671,2652,2633,2615,2595,2577,2557,2541,2524,2508,2491,2479,2465,2455,2443,2434,2424,2417,2407,2401,2392,2387,2379,2374,2367,2366,2367,2377,2396,2428,2467,2516,2569,2629,2690,2752,2812,2870,2916,2952,2977,2995,3004,3007,3004,3000,2992,2985,2974,2964,2952,2940,2925,2911,2896,2881,2864,2848,2832,2817,2801,2786,2770,2754,2738,2722,2704,2686,2668,2648,2628,2610,2590,2570,2551,2533,2517,2501,2486,2473,2462,2451,2441,2432,2425,2417,2409,2404,2403,2410,2425,2450,2484,2526,2575,2627,2685,2743,2802,2858,2907,2945,2975,2994,3008,3013,3016,3013,3008,3002,2995,2985,2976,2963,2950,2934,2920,2903,2889,2871,2853,2834,2818,2800,2785,2767,2749,2729,2712,2691,2671,2649,2630,2607,2586,2565,2545,2523,2505,2486,2471,2455,2442,2429,2419,2408,2398,2388,2382,2374,2369,2360,2354,2346,2342,2341,2348,2362,2390,2426,2476,2530,2593,2659,2730,2798,2865,2924,2977,3017,3048,3066,3079,3084,3088,3086,3084,3078,3074,3066,3060,3049,3038,3024,3011,2993,2977,2956,2936,2915,2893,2870,2848,2827,2806,2782,2761,2737,2715,2691,2669,2645,2623,2599,2576,2553,2532,2510,2492,2471,2455,2439,2424,2409,2397,2384,2373,2363,2353,2344,2338,2330,2321,2313,2306,2300,2294,2287,2282,2279,2277,2278,2288,2310,2345,2391,2448,2513,2586,2664,2742,2823,2901,2971,3030,3076,3110,3135,3151,3161,3165,3166,3164,3161,3153,3146,3135,3124,3110,3095,3077,3058,3036,3013,2989,2966,2940,2918,2892,2869,2845,2821,2794,2769,2741,2718,2690,2666,2640,2616,2589,2566,2541,2521,2498,2481,2461,2446,2428,2414,2399,2389,2376,2367,2355,2349,2337,2330,2320,2317,2317,2326,2343,2375,2414,2466,2522,2588,2656,2728,2799,2867,2927,2978,3016,3047,3065,3081,3087,3092,3091,3090,3084,3078,3068,3057,3043,3030,3011,2994,2971,2949,2925,2901,2876,2853,2828,2805,2780,2757,2731,2709,2684,2659,2633,2609,2582,2557,2531,2508,2484,2463,2443,2424,2405,2389,2372,2361,2348,2337,2325,2315,2306,2297,2290,2284,2277,2272,2266,2260,2255,2252,2250,2254,2266,2290,2327,2375,2433,2500,2575,2654,2735,2816,2891,2960,3017,3061,3095,3118,3132,3140,3143,3141,3139,3134,3125,3113,3100,3085,3070,3052,3033,3012,2990,2964,2940,2916,2893,2868,2842,2816,2789,2762,2735,2706,2680,2651,2624,2597,2573,2548,2526,2502,2482,2460,2442,2424,2409,2394,2380,2367,2357,2346,2339,2330,2325,2317,2313,2305,2300,2293,2292,2293,2305,2324,2357,2400,2455,2515,2586,2659,2737,2812,2887,2950,3007,3049,3083,3105,3119,3125,3129,3127,3124,3114,3107,3094,3083,3066,3050,3031,3011,2989,2968,2943,2919,2893,2870,2845,2822,2795,2770,2743,2717,2690,2665,2637,2612,2584,2560,2534,2511,2486,2466,2445,2425,2406,2391,2375,2362,2348,2336,2325,2317,2312,2315,2327,2350,2384,2427,2477,2535,2598,2664,2729,2795,2854,2905,2946,2976,2997,3011,3018,3019,3017,3013,3004,2993,2980,2965,2948,2931,2912,2891,2871,2851,2830,2811,2792,2772,2754,2735,2715,2694,2674,2651,2629,2606,2584,2561,2538,2516,2496,2477,2458,2441,2427,2411,2398,2386,2376,2370,2373,2383,2405,2435,2475,2522,2576,2635,2697,2759,2821,2875,2922,2958,2988,3006,3018,3024,3027,3024,3020,3011,3001,2988,2974,2956,2939,2918,2899,2876,2856,2832,2811,2789,2770,2749,2731,2710,2691,2668,2646,2622,10,4,3
2502,2522,2550,2583,2621,2660,2700,2739,2774,2803,2825,2839,2845,2845,2838,2828,2816,2804,2789,2775,2765,2754,2745,2736,2729,2722,2717,2711,2705,2701,2697,2690,2683,2676,2669,2658,2649,2640,2629,2617,2605,2592,2579,2566,2554,2541,2531,2520,2514,2516,2525,2542,2568,2599,2634,2672,2713,2754,2793,2826,2852,2871,2882,2884,2881,2874,2864,2849,2834,2818,2803,2787,2771,2755,2741,2730,2719,2711,2704,2698,2693,2689,2685,2680,2674,2665,2655,2643,2629,2615,2602,2588,2574,2560,2549,2536,2525,2515,2508,2506,2510,2522,2541,2569,2602,2641,2683,2728,2771,2811,2845,2872,2890,2902,2903,2901,2893,2883,2869,2856,2841,2827,2811,2798,2782,2768,2753,2742,2730,2721,2711,2705,2699,2694,2686,2681,2673,2665,2652,2640,2626,2613,2598,2582,2567,2553,2538,2525,2513,2508,2503,2508,2520,2540,2568,2603,2642,2685,2728,2773,2813,2849,2877,2897,2909,2913,2910,2904,2892,2880,2865,2849,2832,2818,2800,2785,2771,2759,2745,2735,2723,2715,2707,2700,2691,2683,2673,2666,2654,2643,2629,2615,2599,2585,2568,2553,2539,2524,2507,2495,2486,2483,2487,2500,2521,2551,2585,2624,2667,2713,2760,2804,2841,2871,2891,2904,2910,2910,2906,2898,2888,2875,2860,2845,2830,2816,2801,2787,2774,2761,2748,2736,2726,2716,2709,2700,2692,2683,2673,2663,2652,2640,2628,2615,2603,2589,2577,2564,2553,2542,2532,2522,2518,2517,2523,2534,2553,2579,2612,2648,2688,2728,2771,2808,2842,2867,2888,2900,2908,2908,2905,2896,2887,2874,2862,2847,2833,2817,2803,2786,2773,2759,2746,2735,2726,2717,2712,2703,2697,2688,2682,2671,2660,2646,2634,2618,2603,2588,2574,2561,2548,2535,2525,2515,2508,2501,2503,2508,2524,2547,2575,2608,2647,2684,2725,2762,2798,2825,2847,2858,2862,2861,2856,2844,2833,2817,2802,2784,2771,2757,2747,2734,2725,2714,2706,2698,2694,2691,2689,2684,2681,2673,2668,2657,2648,2635,2622,2606,2591,2575,2559,2545,2532,2517,2505,2494,2488,2486,2490,2502,2520,2546,2579,2616,2657,2699,2742,2780,2813,2840,2860,2872,2875,2872,2864,2852,2838,2821,2804,2787,2770,2754,2739,2729,2718,2710,2703,2699,2697,2694,2692,2691,2687,2682,2674,2666,2655,2643,2629,2614,2599,2585,2571,2557,2543,2531,2520,2516,2514,2522,2538,2562,2593,2629,2669,2714,2759,2803,2841,2875,2899,2916,2923,2925,2920,2911,2895,2881,2864,2847,2828,2812,2795,2781,2767,2757,2746,2740,2732,2727,2721,2720,2713,2711,2702,2695,2684,2673,2659,2645,2628,2614,2595,2581,2562,2550,2533,2524,2514,2513,2518,2533,2555,2587,2621,2663,2704,2748,2789,2831,2862,2890,2906,2915,2918,2918,2909,2900,2887,2873,2857,2843,2824,2809,2792,2777,2762,2750,2738,2730,2720,2713,2705,2700,2692,2685,2675,2665,2652,2641,2627,2614,2599,2586,2571,2559,2547,2535,2524,2518,2514,2519,2530,2551,2576,2610,2648,2689,2732,2774,2813,2849,2877,2896,2906,2909,2907,2899,2887,2873,2860,2845,2829,2812,2797,2781,2768,2754,2741,2730,2719,2709,2700,2690,2683,2674,2668,2656,2643,2629,2615,2599,2585,2570,2558,2542,2530,2517,2506,2495,2488,2483,2486,2491,2507,2526,2557,2592,2633,2677,2723,2764,2805,2838,2865,2882,2894,2896,2895,2886,2877,2863,2850,2836,2821,2804,2791,2775,2762,2749,2734,2722,2713,2701,2690,2681,2675,2667,2663,2655,2649,2644,2639,2629,2621,2612,2604,2591,2581,2567,2556,2540,2529,2515,2511,2511,2521,2539,2567,2599,2638,2680,2724,2769,2814,2851,2885,2905,2918,2920,2919,2908,2895,2879,2864,2843,2824,2802,2786,2770,2757,2741,2730,2718,2708,2696,2689,2679,2671,2658,2644,2631,2618,2603,2585,2566,2549,2532,2518,2504,2494,2485,2477,2470,2468,2472,2479,2495,2517,2544,2579,2616,2655,2698,2740,2779,2813,2840,2860,2873,2879,2879,2875,2869,2858,2846,2833,2818,2802,2784,2766,2750,2735,2724,2710,2700,2689,2684,2679,2676,2674,2670,2664,2659,2649,2640,2628,2616,2601,2588,2571,2558,2547,2541,2538,2545,2560,2583,2610,2648,2686,2726,2766,2804,2835,2862,2877,2885,2883,2877,2861,2844,2824,2801,2779,2758,2737,2719,2701,2688,2673,2664,2655,2651,2646,2645,2641,2639,2636,2630,2620,2613,2599,2587,2572,2557,2539,2523,2505,2490,2475,2467,2462,2468,2477,2498,2528,2565,2605,2654,2700,2748,2792,2834,2866,2890,2904,2911,2910,2906,2895,2884,2869,2855,2837,2820,2803,2788,2770,2755,2739,2726,2711,2702,2689,2680,2670,2662,2653,2643,2631,2619,2606,2593,2578,2564,2550,2537,2524,2513,2503,2499,2499,2507,2525,2550,2583,2623,2665,2710,2757,2803,2843,2879,2907,2925,2934,2933,2930,2921,2908,2893,2875,2858,2841,2822,2805,2790,2777,2761,2747,2735,2724,2714,2705,2695,2686,2676,2666,2652,2640,2625,2611,2593,2578,2562,2549,2533,2520,2506,2497,2488,2486,2488,2498,2512,2537,2567,2604,2642,2686,2729,2773,2811,2845,2869,2888,2896,2899,2895,2887,2875,2861,2843,2827,2807,2790,2773,2759,2742,2729,2715,2704,2690,2681,2669,2663,2652,2642,2631,2620,2608,2596,2581,2568,2553,2538,2520,2507,2491,2480,2468,2461,2458,2466,2478,2500,2528,2564,2601,2646,2687,2732,2770,2806,2831,2850,2859,2863,2856,2848,2833,2817,2798,2780,2760,2744,2729,2716,2704,2696,2688,2684,2679,2676,2671,2668,2661,2656,2647,2637,2623,2610,2595,2581,2566,2552,2537,2524,2511,2504,2501,2507,2518,2539,2567,2601,2640,2681,2725,2766,2803,2835,2857,2873,2878,2876,2867,2854,2837,2817,2796,2774,2754,2736,2718,2703,2690,2679,2671,2664,2660,2656,2654,2652,2650,2645,2640,2630,2620,2607,2594,2579,2564,2547,2532,2515,2502,2492,2492,2496,2512,2535,2568,2605,2649,2695,2744,2791,2834,2867,2896,2913,2922,2920,2916,2903,2889,2870,2851,2830,2810,2788,2770,2753,2739,2725,2716,2706,2700,2693,2690,2684,2681,2673,2667,2656,2647,2632,2618,2602,2589,2572,2557,2542,2532,2520,2516,2516,2529,2548,2575,2608,2650,2692,2738,2782,2828,2864,2896,2917,2931,2934,2935,2928,2919,2904,2888,2867,2848,2828,2810,2789,2773,2752,2736,2722,2711,2701,2695,2689,2684,2677,2673,2664,2656,2645,2632,2618,2604,2588,2575,2560,2547,2533,2525,2519,2521,2528,2545,2569,2599,2635,2674,2714,2757,2799,2836,2866,2890,2906,2913,2914,2910,2902,2892,2879,2863,2846,2828,2810,2792,2776,2759,2743,2728,2716,2704,2695,2686,2678,2669,2660,2648,2637,2624,2610,2594,2580,2564,2549,2534,2522,2508,2497,2487,2484,2485,2496,2512,2539,2571,2610,2651,2695,2738,2782,2818,2850,2872,2886,2892,2891,2884,2875,2862,2849,2832,2818,2801,2786,2771,2757,2743,2730,2718,2710,2699,2691,2681,2674,2664,2654,2641,2629,2613,2599,2580,2565,2546,2533,2517,2505,2491,2481,2468,2461,2453,2453,2458,2473,2492,2524,2559,2602,2646,2694,2739,2783,2822,2853,2875,2889,2892,2892,2885,2877,2864,2850,2833,2816,2799,2782,2764,2748,2731,2715,2701,2690,2677,2670,2662,2656,2648,2643,2633,2625,2615,2603,2589,2575,2559,2544,2529,2516,2501,2488,2474,2462,2450,2440,2432,2431,2437,2451,2472,2503,2540,2583,2630,2678,2727,2773,2813,2845,2870,2885,2892,2891,2884,2873,2860,2843,2827,2810,2793,2775,2760,2745,2731,2717,2705,2693,2685,2675,2665,2655,2647,2636,2625,2614,2603,2589,2577,2563,2549,2535,2523,2509,2498,2485,2475,2463,2454,2446,2444,2448,2460,2478,2505,2538,2577,2618,2665,2708,2751,2786,2819,2841,2856,2864,2864,2858,2851,2837,2824,2808,2794,2775,2761,2744,2729,2715,2703,2689,2681,2672,2667,2659,2656,2649,2644,2636,2627,2616,2605,2590,2578,2563,2551,2536,2525,2511,2500,2488,2479,2467,2458,2451,2450,2453,2468,2489,2520,2557,2601,2648,2697,2744,2791,2831,2864,2884,2899,2902,2901,2893,2883,2868,2854,2837,2822,2806,2794,2782,2770,2759,2748,2739,2731,2721,2715,2708,2701,2691,2681,2669,2658,2644,2630,2615,2601,2588,2574,2560,2548,2537,2527,2518,2514,2516,2526,2541,2564,2593,2627,2665,2706,2747,2786,2822,2849,2871,2884,2888,2887,2880,2869,2857,2841,2826,2809,2795,2780,2769,2759,2749,2740,2733,2725,2720,2712,2705,2696,2686,2674,2661,2646,2634,2617,2603,2588,2574,2560,2547,2534,2522,2512,2507,2505,2512,2525,2550,2580,2616,2657,2704,2750,2796,2837,2874,2900,2919,2928,2929,2925,2917,2903,2888,2872,2856,2840,2825,2810,2798,2786,2777,2769,2763,2756,2753,2748,2744,2739,2736,2728,2722,2711,2700,2687,2675,2660,2644,2626,2609,2590,2575,2560,2554,2554,2564,2580,2608,2641,2681,2722,2767,2811,2854,2887,2916,2933,2943,2944,2939,2928,2915,2899,2878,2857,2838,2816,2797,2778,2760,2745,2732,2722,2713,2706,2701,2696,2692,2686,2680,2671,2659,2644,2629,2612,2594,2576,2557,2537,2521,2506,2493,2485,2485,2492,2507,2531,2563,2602,2646,2691,2739,2785,2827,2862,2889,2909,2920,2924,2922,2915,2903,2889,2875,2861,2846,2832,2816,2802,2788,2774,2760,2750,2741,2730,2721,2713,2703,2695,2685,2673,2661,2648,2633,2618,2604,2589,2574,2561,2547,2535,2526,2520,2517,2525,2538,2561,2591,2627,2669,2714,2760,2806,2848,2886,2916,2936,2947,2951,2949,2940,2927,2912,2896,2880,2862,2844,2827,2811,2795,2779,2765,2753,2741,2730,2720,2711,2703,2694,2685,2674,2663,2650,2637,2623,2610,2596,2582,2569,2556,2544,2531,2520,2512,2507,2506,2512,2528,2550,2580,2615,2655,2699,2742,2785,2824,2859,2885,2903,2912,2915,2912,2905,2893,2878,2862,2844,2823,2805,2787,2770,2754,2739,2725,2714,2704,2694,2687,2679,2670,2661,2649,2636,2621,2605,2588,2571,2553,2537,2522,2508,2494,2483,2473,2463,2453,2446,2442,2441,2447,2459,2482,2512,2549,2592,2638,2685,2731,2773,2812,2841,2862,2873,2874,2867,2854,2838,2819,2799,2780,2760,2741,2724,2709,2695,2685,2675,2666,2660,2655,2649,2646,2644,2640,2633,2629,2620,2612,2603,2590,2577,2563,2548,2532,2515,2499,2484,2470,2460,2457,2462,2476,2499,2530,2568,2613,2661,2711,2760,2806,2843,2870,2885,2892,2891,2881,2864,2842,2815,2785,2757,2730,2705,2685,2667,2653,2642,2635,2631,2630,2632,2634,2636,2638,2637,2634,2626,2617,2605,2590,2575,2558,2543,2527,2514,2504,2495,2493,2497,2513,2538,2571,2613,2662,2715,2769,2827,2881,2932,2974,3007,3029,3041,3042,3035,3020,3000,2976,2948,2917,2886,2855,2824,2797,2773,2748,2727,2710,2695,2682,2672,2660,2650,2640,2626,2612,2598,2582,2566,2549,2533,2516,2501,2485,2472,2463,2458,2460,2470,2489,2519,2556,2601,2651,2705,2761,2815,2865,2909,2943,2967,2981,2985,2981,2971,2956,2937,2917,2894,2871,2848,2827,2807,2788,2773,2759,2748,2738,2727,2719,2711,2703,2694,2683,2670,2655,2639,2619,2600,2581,2561,2544,2526,2512,2498,2492,2490,2499,2515,2541,2573,2613,2656,2703,2750,2796,2840,2877,2905,2926,2936,2940,2935,2925,2910,2893,2874,2853,2831,2809,2786,2765,2745,2727,2711,2698,2685,2676,2666,2658,2651,2645,2636,2626,2614,2602,2588,2572,2555,2541,2525,2510,2495,2483,2472,2465,2460,2464,2475,2492,2518,2550,2591,2633,2679,2728,2774,2818,2854,2883,2903,2915,2919,2917,2909,2900,2886,2873,2857,2843,2828,2815,2802,2788,2776,2765,2750,2737,2724,2711,2696,2682,2666,2652,2638,2624,2609,2597,2586,2574,2562,2552,2540,2526,2514,2502,2490,2480,2473,2472,2481,2497,2523,2559,2602,2647,2694,2743,2789,2829,2861,2883,2893,2892,2883,2867,2847,2823,2798,2774,2751,2729,2710,2696,2686,2677,2673,2669,2667,2664,2662,2658,2653,2644,2633,2620,2606,2584,2566,2547,2527,2506,2485,2465,2446,2427,2411,2398,2393,2392,2402,2421,2448,2485,2529,2576,2628,2678,2728,2770,2806,2829,2844,2851,2848,2836,2822,2802,2782,2758,2738,2716,2700,2685,2675,2665,2660,2654,2652,2649,2649,2645,2642,2636,2629,2617,2607,2591,2575,2557,2539,2520,2503,2486,2471,2457,2451,2452,2464,2483,2513,2549,2593,2640,2691,2739,2788,2828,2861,2884,2898,2900,2895,2880,2863,2841,2819,2793,2770,2746,2725,2705,2688,2674,2664,2654,2647,2642,2639,2638,2636,2634,2632,2627,2620,2611,2599,2587,2575,2559,2544,2528,2513,2500,2490,2485,2490,2504,2527,2558,2598,2643,2695,2748,2801,2853,2899,2938,2966,2983,2990,2989,2978,2964,2944,2919,2891,2863,2834,2807,2779,2754,2730,2714,2697,2686,2676,2670,2666,2664,2659,2655,2648,2642,2629,2616,2598,2582,2561,2542,2520,2501,2483,2470,2459,2460,2467,2487,2516,2557,2602,2656,2710,2768,2822,2874,2916,2950,2971,2982,2980,2975,2959,2942,2917,2894,2866,2840,2814,2791,2768,2749,2729,2715,2701,2693,2683,2678,2671,2665,2657,2649,2635,2623,2606,2589,2568,2549,2528,2512,2493,2479,2463,2453,2442,2440,2443,2459,2480,2514,2553,2600,2650,2706,2762,2817,2867,2909,2940,2963,2973,2978,2973,2962,2946,2930,2912,2892,2873,2857,2839,2825,2812,2804,2796,2792,2785,2781,2779,2774,2767,2759,2747,2732,2714,2694,2673,2653,2633,2612,2592,2574,2557,2543,2529,2518,2511,2510,2515,2529,2552,2581,2619,2662,2708,2756,2804,2847,2883,2911,2930,2936,2936,2928,2914,2895,2874,2850,2827,2803,2779,2756,2738,2718,2703,2689,2679,2670,2663,2657,2652,2646,2642,2633,2626,2614,2602,2586,2571,2553,2536,2518,2502,2482,2467,2449,2435,2420,2410,2402,2403,2412,2431,2460,2501,2545,2598,2650,2706,2758,2808,2850,2883,2904,2914,2913,2908,2894,2878,2857,2836,2811,2789,2765,2747,2727,2713,2698,2687,2676,2668,2660,2657,2648,2643,2632,2624,2612,2600,2585,2570,2552,2537,2518,2503,2487,2474,2457,2444,2429,2417,2403,2396,2391,2398,2411,2436,2467,2510,2555,2607,2660,2715,2766,2813,2849,2876,2891,2898,2894,2884,2868,2850,2827,2805,2781,2760,2740,2725,2710,2699,2691,2685,2681,2679,2677,2675,2673,2669,2662,2654,2645,2634,2619,2605,2589,2573,2557,2538,2520,2502,2481,2460,2439,2420,2406,2399,2401,2413,2436,2469,2511,2559,2613,2669,2726,2776,2821,2856,2881,2894,2899,2893,2881,2862,2841,2816,2790,2764,2742,2719,2701,2686,2675,2665,2661,2658,2660,2662,2666,2666,2668,2665,2660,2652,2644,2630,2616,2598,2580,2560,2539,2517,2498,2477,2463,2454,2455,2465,2486,2516,2555,2599,2650,2701,2756,2804,2848,2881,2907,2921,2927,2923,2914,2897,2879,2855,2834,2809,2790,2768,2753,2738,2727,2718,2713,2708,2709,2708,2710,2707,2707,2699,2693,2680,2669,2653,2636,2616,2597,2575,2556,2535,2516,2499,2487,2478,2481,2494,2519,2551,2595,2643,2698,2756,2815,2869,2919,2959,2992,3010,3020,3019,3012,2999,2983,2962,2942,2919,2896,2874,2854,2836,2821,2809,2798,2789,2782,2776,2772,2767,2762,2754,2745,2733,2718,2701,2681,2661,2641,2618,2596,2574,2553,2532,2513,2498,2488,2486,2494,2515,2546,2586,2632,2683,2738,2796,2850,2901,2945,2978,2998,3011,3013,3009,2999,2986,2967,2946,2925,2903,2880,2860,2840,2824,2808,2795,2783,2775,2767,2761,2752,2744,2733,2723,2707,2692,2673,2653,2630,2611,2588,2570,2549,2531,2512,2496,2479,2468,2459,2460,2467,2486,2514,2554,2598,2652,2706,2765,2819,2873,2915,2952,2975,2989,2992,2990,2980,2968,2949,2931,2909,2888,2865,2846,2824,2808,2792,2779,2765,2756,2747,2742,2735,2729,2721,2715,2702,2688,2671,2655,2634,2614,2592,2570,2548,2528,2505,2487,2468,2451,2435,2421,2410,2407,2409,2423,2445,2480,2522,2573,2627,2685,2744,2804,2856,2902,2938,2961,2973,2977,2971,2960,2942,2922,2899,2876,2853,2831,2810,2792,2774,2759,2744,2732,2721,2714,2707,2700,2694,2688,2680,2670,2660,2647,2632,2615,2597,2578,2558,2537,2517,2497,2480,2463,2447,2432,2421,2412,2409,2414,2429,2453,2489,2531,2583,2638,2697,2756,2816,2869,2913,2947,2971,2982,2987,2980,2968,2951,2930,2906,2885,2861,2839,2819,2801,2782,2768,2755,2745,2734,2728,2718,2712,2702,2694,2681,2669,2653,2636,2618,2601,2581,2563,2543,2528,2511,2499,2485,2473,2461,2451,2441,2439,2443,2455,2475,2506,2542,2588,2637,2694,2748,2805,2854,2898,2932,2958,2971,2977,2973,2965,2948,2930,2907,2884,2860,2836,2813,2791,2770,2754,2739,2730,2721,2716,2710,2705,2699,2693,2685,2678,2666,2652,2636,2620,2603,2587,2570,2555,2540,2526,2511,2499,2486,2473,2462,2457,2456,2464,2481,2506,2540,2583,2631,2682,2735,2788,2836,2877,2910,2932,2944,2947,2941,2930,2912,2892,2870,2847,2824,2803,2784,2765,2748,2735,2724,2716,2711,2706,2703,2698,2695,2690,2684,2675,2665,2652,2638,2623,2608,2590,2574,2556,2539,2522,2507,2493,2483,2480,2487,2500,2526,2556,2596,2638,2685,2733,2780,2822,2859,2885,2902,2910,2909,2900,2886,2864,2842,2816,2790,2764,2740,2717,2698,2682,2670,2660,2656,2650,2650,2648,2648,2646,2645,2638,2631,2618,2606,2590,2577,2558,2542,2523,2507,0,2,0
