1,2,3,4,5,6,7,8,9,10,11,12,13,14,15,16,17,18,19,20,21,22,23,24,25,26,27,28,29,30,31,32,33,34,35,36,37,38,39,40,41,42,43,44,45,46,47,48,49,50,51,52,53,54,55,56,57,58,59,60,61,62,63,64,65,66,67,68,69,70,71,72,73,74,75,76,77,78,79,80,81,82,83,84,85,86,87,88,89,90,91,92,93,94,95,96,97,98,99,100,101,102,103,104,105,106,107,108,109,110,111,112,113,114,115,116,117,118,119,120,121,122,123,124,125,126,127,128,129,130,131,132,133,134,135,136,137,138,139,140,141,142,143,144,145,146,147,148,149,150,151,152,153,154,155,156,157,158,159,160,161,162,163,164,165,166,167,168,169,170,171,172,173,174,175,176,177,178,179,180,181,182,183,184,185,186,187,188,189,190,191,192,193,194,195,196,197,198,199,200,201,202,203,204,205,206,207,208,209,210,211,212,213,214,215,216,217,218,219,220,221,222,223,224,225,226,227,228,229,230,231,232,233,234,235,236,237,238,239,240,241,242,243,244,245,246,247,248,249,250,251,252,253,254,255,256,257,258,259,260,261,262,263,264,265,266,267,268,269,270,271,272,273,274,275,276,277,278,279,280,281,282,283,284,285,286,287,288,289,290,291,292,293,294,295,296,297,298,299,300,301,302,303,304,305,306,307,308,309,310,311,312,313,314,315,316,317,318,319,320,321,322,323,324,325,326,327,328,329,330,331,332,333,334,335,336,337,338,339,340,341,342,343,344,345,346,347,348,349,350,351,352,353,354,355,356,357,358,359,360,361,362,363,364,365,366,367,368,369,370,371,372,373,374,375,376,377,378,379,380,381,382,383,384,385,386,387,388,389,390,391,392,393,394,395,396,397,398,399,400,401,402,403,404,405,406,407,408,409,410,411,412,413,414,415,416,417,418,419,420,421,422,423,424,425,426,427,428,429,430,431,432,433,434,435,436,437,438,439,440,441,442,443,444,445,446,447,448,449,450,451,452,453,454,455,456,457,458,459,460,461,462,463,464,465,466,467,468,469,470,471,472,473,474,475,476,477,478,479,480,481,482,483,484,485,486,487,488,489,490,491,492,493,494,495,496,497,498,499,500,501,502,503,504,505,506,507,508,509,510,511,512,513,514,515,516,517,518,519,520,521,522,523,524,525,526,527,528,529,530,531,532,533,534,535,536,537,538,539,540,541,542,543,544,545,546,547,548,549,550,551,552,553,554,555,556,557,558,559,560,561,562,563,564,565,566,567,568,569,570,571,572,573,574,575,576,577,578,579,580,581,582,583,584,585,586,587,588,589,590,591,592,593,594,595,596,597,598,599,600,601,602,603,604,605,606,607,608,609,610,611,612,613,614,615,616,617,618,619,620,621,622,623,624,625,626,627,628,629,630,631,632,633,634,635,636,637,638,639,640,641,642,643,644,645,646,647,648,649,650,651,652,653,654,655,656,657,658,659,660,661,662,663,664,665,666,667,668,669,670,671,672,673,674,675,676,677,678,679,680,681,682,683,684,685,686,687,688,689,690,691,692,693,694,695,696,697,698,699,700,701,702,703,704,705,706,707,708,709,710,711,712,713,714,715,716,717,718,719,720,721,722,723,724,725,726,727,728,729,730,731,732,733,734,735,736,737,738,739,740,741,742,743,744,745,746,747,748,749,750,751,752,753,754,755,756,757,758,759,760,761,762,763,764,765,766,767,768,769,770,771,772,773,774,775,776,777,778,779,780,781,782,783,784,785,786,787,788,789,790,791,792,793,794,795,796,797,798,799,800,801,802,803,804,805,806,807,808,809,810,811,812,813,814,815,816,817,818,819,820,821,822,823,824,825,826,827,828,829,830,831,832,833,834,835,836,837,838,839,840,841,842,843,844,845,846,847,848,849,850,851,852,853,854,855,856,857,858,859,860,861,862,863,864,865,866,867,868,869,870,871,872,873,874,875,876,877,878,879,880,881,882,883,884,885,886,887,888,889,890,891,892,893,894,895,896,897,898,899,900,901,902,903,904,905,906,907,908,909,910,911,912,913,914,915,916,917,918,919,920,921,922,923,924,925,926,927,928,929,930,931,932,933,934,935,936,937,938,939,940,941,942,943,944,945,946,947,948,949,950,951,952,953,954,955,956,957,958,959,960,961,962,963,964,965,966,967,968,969,970,971,972,973,974,975,976,977,978,979,980,981,982,983,984,985,986,987,988,989,990,991,992,993,994,995,996,997,998,999,1000,1001,1002,1003,1004,1005,1006,1007,1008,1009,1010,1011,1012,1013,1014,1015,1016,1017,1018,1019,1020,1021,1022,1023,1024,1025,1026,1027,1028,1029,1030,1031,1032,1033,1034,1035,1036,1037,1038,1039,1040,1041,1042,1043,1044,1045,1046,1047,1048,1049,1050,1051,1052,1053,1054,1055,1056,1057,1058,1059,1060,1061,1062,1063,1064,1065,1066,1067,1068,1069,1070,1071,1072,1073,1074,1075,1076,1077,1078,1079,1080,1081,1082,1083,1084,1085,1086,1087,1088,1089,1090,1091,1092,1093,1094,1095,1096,1097,1098,1099,1100,1101,1102,1103,1104,1105,1106,1107,1108,1109,1110,1111,1112,1113,1114,1115,1116,1117,1118,1119,1120,1121,1122,1123,1124,1125,1126,1127,1128,1129,1130,1131,1132,1133,1134,1135,1136,1137,1138,1139,1140,1141,1142,1143,1144,1145,1146,1147,1148,1149,1150,1151,1152,1153,1154,1155,1156,1157,1158,1159,1160,1161,1162,1163,1164,1165,1166,1167,1168,1169,1170,1171,1172,1173,1174,1175,1176,1177,1178,1179,1180,1181,1182,1183,1184,1185,1186,1187,1188,1189,1190,1191,1192,1193,1194,1195,1196,1197,1198,1199,1200,1201,1202,1203,1204,1205,1206,1207,1208,1209,1210,1211,1212,1213,1214,1215,1216,1217,1218,1219,1220,1221,1222,1223,1224,1225,1226,1227,1228,1229,1230,1231,1232,1233,1234,1235,1236,1237,1238,1239,1240,1241,1242,1243,1244,1245,1246,1247,1248,1249,1250,1251,1252,1253,1254,1255,1256,1257,1258,1259,1260,1261,1262,1263,1264,1265,1266,1267,1268,1269,1270,1271,1272,1273,1274,1275,1276,1277,1278,1279,1280,1281,1282,1283,1284,1285,1286,1287,1288,1289,1290,1291,1292,1293,1294,1295,1296,1297,1298,1299,1300,1301,1302,1303,1304,1305,1306,1307,1308,1309,1310,1311,1312,1313,1314,1315,1316,1317,1318,1319,1320,1321,1322,1323,1324,1325,1326,1327,1328,1329,1330,1331,1332,1333,1334,1335,1336,1337,1338,1339,1340,1341,1342,1343,1344,1345,1346,1347,1348,1349,1350,1351,1352,1353,1354,1355,1356,1357,1358,1359,1360,1361,1362,1363,1364,1365,1366,1367,1368,1369,1370,1371,1372,1373,1374,1375,1376,1377,1378,1379,1380,1381,1382,1383,1384,1385,1386,1387,1388,1389,1390,1391,1392,1393,1394,1395,1396,1397,1398,1399,1400,1401,1402,1403,1404,1405,1406,1407,1408,1409,1410,1411,1412,1413,1414,1415,1416,1417,1418,1419,1420,1421,1422,1423,1424,1425,1426,1427,1428,1429,1430,1431,1432,1433,1434,1435,1436,1437,1438,1439,1440,1441,1442,1443,1444,1445,1446,1447,1448,1449,1450,1451,1452,1453,1454,1455,1456,1457,1458,1459,1460,1461,1462,1463,1464,1465,1466,1467,1468,1469,1470,1471,1472,1473,1474,1475,1476,1477,1478,1479,1480,1481,1482,1483,1484,1485,1486,1487,1488,1489,1490,1491,1492,1493,1494,1495,1496,1497,1498,1499,1500,1501,1502,1503,1504,1505,1506,1507,1508,1509,1510,1511,1512,1513,1514,1515,1516,1517,1518,1519,1520,1521,1522,1523,1524,1525,1526,1527,1528,1529,1530,1531,1532,1533,1534,1535,1536,1537,1538,1539,1540,1541,1542,1543,1544,1545,1546,1547,1548,1549,1550,1551,1552,1553,1554,1555,1556,1557,1558,1559,1560,1561,1562,1563,1564,1565,1566,1567,1568,1569,1570,1571,1572,1573,1574,1575,1576,1577,1578,1579,1580,1581,1582,1583,1584,1585,1586,1587,1588,1589,1590,1591,1592,1593,1594,1595,1596,1597,1598,1599,1600,1601,1602,1603,1604,1605,1606,1607,1608,1609,1610,1611,1612,1613,1614,1615,1616,1617,1618,1619,1620,1621,1622,1623,1624,1625,1626,1627,1628,1629,1630,1631,1632,1633,1634,1635,1636,1637,1638,1639,1640,1641,1642,1643,1644,1645,1646,1647,1648,1649,1650,1651,1652,1653,1654,1655,1656,1657,1658,1659,1660,1661,1662,1663,1664,1665,1666,1667,1668,1669,1670,1671,1672,1673,1674,1675,1676,1677,1678,1679,1680,1681,1682,1683,1684,1685,1686,1687,1688,1689,1690,1691,1692,1693,1694,1695,1696,1697,1698,1699,1700,1701,1702,1703,1704,1705,1706,1707,1708,1709,1710,1711,1712,1713,1714,1715,1716,1717,1718,1719,1720,1721,1722,1723,1724,1725,1726,1727,1728,1729,1730,1731,1732,1733,1734,1735,1736,1737,1738,1739,1740,1741,1742,1743,1744,1745,1746,1747,1748,1749,1750,1751,1752,1753,1754,1755,1756,1757,1758,1759,1760,1761,1762,1763,1764,1765,1766,1767,1768,1769,1770,1771,1772,1773,1774,1775,1776,1777,1778,1779,1780,1781,1782,1783,1784,1785,1786,1787,1788,1789,1790,1791,1792,1793,1794,1795,1796,1797,1798,1799,1800,stress_score
2524,2526,2524,2530,2571,2639,2733,2761,2818,2847,2866,2926,2938,2949,2949,2949,2940,2936,2901,2878,2854,2846,2816,2801,2782,2772,2758,2753,2725,2720,2691,2684,2672,2645,2608,2585,2570,2556,2554,2545,2535,2542,2557,2571,2590,2602,2629,2683,2757,2822,2841,2868,2870,2871,2866,2859,2849,2841,2834,2830,2810,2793,2783,2770,2767,2759,2730,2695,2679,2668,2666,2663,2656,2650,2645,2631,2623,2608,2584,2570,2565,2565,2577,2623,2665,2727,2772,2780,2787,2793,2794,2793,2792,2781,2777,2770,2759,2744,2734,2728,2724,2717,2714,2697,2694,2680,2676,2661,2652,2647,2634,2614,2608,2600,2576,2560,2546,2538,2523,2511,2507,2505,2506,2507,2525,2537,2552,2618,2645,2729,2755,2814,2827,2848,2857,2865,2893,2901,2901,2900,2882,2871,2859,2820,2809,2788,2776,2767,2739,2712,2702,2694,2665,2656,2638,2629,2620,2591,2566,2558,2551,2533,2530,2520,2520,2523,2524,2532,2538,2543,2542,2543,2544,2563,2575,2610,2632,2654,2743,2788,2807,2817,2821,2822,2818,2804,2796,2776,2769,2754,2744,2727,2714,2697,2688,2676,2662,2655,2651,2636,2627,2622,2621,2615,2615,2615,2617,2619,2615,2605,2580,2574,2565,2564,2589,2621,2675,2688,2712,2723,2727,2738,2737,2739,2735,2729,2712,2693,2674,2674,2668,2673,2671,2674,2668,2655,2655,2640,2632,2625,2618,2621,2618,2622,2618,2620,2610,2606,2610,2618,2652,2718,2766,2786,2841,2850,2870,2869,2869,2865,2860,2847,2836,2803,2772,2768,2755,2745,2740,2714,2698,2684,2669,2658,2647,2632,2625,2617,2613,2609,2610,2605,2601,2592,2588,2590,2589,2600,2619,2666,2683,2748,2763,2794,2806,2810,2816,2818,2811,2808,2803,2803,2783,2779,2754,2752,2734,2728,2724,2711,2711,2699,2690,2687,2664,2662,2652,2639,2622,2623,2616,2607,2604,2605,2600,2599,2601,2589,2591,2584,2581,2575,2584,2586,2629,2644,2743,2811,2823,2852,2849,2848,2841,2825,2823,2797,2793,2765,2756,2761,2764,2764,2749,2714,2682,2664,2637,2628,2611,2583,2570,2560,2562,2588,2615,2622,2624,2617,2611,2606,2606,2614,2618,2665,2682,2709,2780,2843,2866,2872,2876,2871,2864,2865,2850,2838,2819,2802,2791,2787,2765,2765,2750,2751,2743,2736,2727,2717,2716,2707,2695,2684,2673,2673,2655,2655,2638,2640,2629,2632,2625,2627,2621,2624,2618,2625,2623,2659,2670,2739,2757,2828,2840,2873,2871,2876,2866,2868,2854,2855,2838,2826,2815,2814,2790,2789,2764,2761,2728,2722,2702,2686,2680,2646,2643,2632,2617,2608,2600,2595,2591,2582,2591,2610,2667,2714,2763,2818,2837,2841,2850,2839,2809,2804,2782,2766,2759,2724,2686,2669,2666,2659,2654,2646,2635,2621,2595,2594,2583,2570,2555,2566,2575,2587,2606,2632,2655,2721,2753,2774,2852,2865,2899,2895,2890,2863,2841,2802,2771,2754,2729,2715,2713,2692,2685,2674,2674,2648,2618,2604,2587,2566,2552,2549,2521,2511,2507,2500,2499,2505,2500,2509,2507,2514,2510,2535,2543,2582,2614,2638,2745,2829,2869,2887,2900,2895,2900,2885,2862,2860,2826,2799,2764,2746,2718,2716,2665,2643,2608,2595,2581,2562,2563,2555,2548,2549,2543,2543,2562,2618,2691,2726,2779,2796,2844,2844,2848,2838,2829,2805,2788,2746,2724,2687,2673,2655,2640,2637,2602,2599,2565,2562,2532,2532,2520,2509,2511,2497,2502,2494,2500,2497,2503,2505,2508,2516,2581,2635,2730,2753,2824,2849,2859,2855,2862,2856,2852,2841,2822,2806,2800,2764,2727,2724,2693,2670,2632,2607,2575,2561,2540,2534,2522,2526,2520,2526,2521,2521,2522,2528,2524,2529,2540,2536,2545,2541,2554,2572,2621,2715,2813,2901,2936,2949,2943,2941,2933,2923,2911,2890,2875,2870,2835,2815,2787,2768,2750,2731,2696,2691,2673,2656,2628,2607,2599,2597,2593,2590,2582,2586,2579,2581,2580,2588,2591,2648,2725,2761,2786,2867,2877,2895,2904,2901,2879,2860,2817,2778,2772,2752,2738,2735,2705,2684,2669,2665,2627,2622,2607,2584,2555,2545,2536,2529,2523,2526,2516,2515,2513,2514,2514,2521,2519,2552,2643,2669,2768,2791,2859,2866,2887,2880,2882,2874,2863,2851,2831,2825,2809,2779,2756,2725,2708,2688,2654,2627,2589,2573,2549,2540,2533,2535,2527,2527,2520,2519,2523,2518,2522,2517,2521,2517,2526,2526,2530,2554,2585,2660,2777,2811,2854,2936,2981,2979,2985,2971,2962,2948,2935,2917,2912,2871,2864,2827,2810,2792,2763,2760,2745,2701,2669,2652,2626,2612,2600,2585,2588,2580,2576,2568,2564,2558,2561,2559,2566,2563,2574,2571,2580,2579,2614,2651,2705,2796,2886,2928,2941,2933,2933,2909,2906,2889,2874,2869,2831,2823,2788,2783,2753,2736,2732,2713,2674,2666,2648,2613,2587,2561,2525,2509,2511,2509,2516,2514,2532,2536,2555,2613,2794,2864,2892,2886,2882,2871,2862,2859,2828,2822,2778,2769,2724,2716,2700,2655,2636,2622,2597,2563,2559,2546,2530,2510,2511,2501,2504,2500,2504,2498,2495,2493,2500,2514,2522,2593,2619,2657,2801,2875,2904,2915,2917,2895,2859,2849,2802,2768,2752,2747,2715,2699,2679,2648,2644,2632,2610,2598,2579,2570,2559,2552,2548,2552,2548,2554,2551,2556,2558,2570,2578,2586,2602,2601,2608,2608,2611,2605,2599,2603,2661,2690,2782,2820,2903,2938,2953,2957,2951,2940,2916,2902,2887,2850,2825,2808,2796,2777,2765,2750,2716,2694,2667,2665,2648,2643,2637,2640,2640,2638,2641,2636,2638,2633,2640,2654,2664,2684,2748,2846,2895,2901,2892,2870,2866,2840,2835,2802,2796,2782,2756,2744,2723,2713,2693,2668,2666,2657,2644,2636,2628,2622,2614,2606,2605,2589,2586,2575,2565,2562,2547,2556,2602,2693,2724,2761,2876,2922,2917,2916,2889,2853,2843,2827,2789,2773,2751,2745,2735,2715,2705,2685,2680,2669,2633,2607,2590,2575,2565,2552,2544,2539,2533,2531,2526,2528,2527,2552,2564,2673,2816,2937,2944,2928,2915,2895,2860,2843,2831,2785,2775,2761,2732,2701,2675,2629,2591,2582,2548,2520,2512,2504,2507,2504,2505,2501,2502,2493,2491,2487,2499,2511,2533,2551,2622,2657,2768,2841,2927,2942,2973,2976,2977,2971,2957,2913,2896,2858,2822,2814,2786,2769,2740,2726,2688,2672,2632,2605,2568,2561,2533,2513,2505,2496,2492,2495,2494,2506,2507,2512,2520,2526,2532,2540,2548,2561,2563,2570,2581,2619,2675,2767,2867,2951,2968,2991,2998,2997,2997,2992,2979,2969,2939,2923,2883,2838,2813,2781,2767,2756,2716,2703,2676,2660,2647,2607,2597,2568,2562,2544,2540,2536,2533,2532,2528,2528,2527,2528,2524,2521,2526,2562,2631,2731,2764,2853,2874,2902,2910,2914,2913,2908,2894,2869,2836,2797,2764,2754,2731,2705,2697,2686,2657,2615,2590,2574,2564,2565,2565,2566,2565,2558,2556,2545,2534,2532,2523,2521,2518,2514,2532,2547,2566,2653,2686,2788,2816,2879,2896,2901,2893,2872,2849,2806,2788,2772,2723,2670,2659,2638,2615,2596,2585,2576,2560,2539,2530,2526,2521,2527,2546,2599,2617,2618,2612,2595,2582,2572,2569,2574,2611,2683,2774,2847,2884,2883,2878,2874,2863,2859,2831,2808,2771,2737,2728,2706,2700,2689,2672,2656,2646,2638,2631,2629,2627,2627,2626,2625,2624,2624,2626,2627,2627,2626,2621,2609,2595,2577,2575,2593,2610,2696,2733,2772,2853,2977,3017,3015,2978,2936,2888,2873,2832,2796,2764,2732,2721,2684,2649,2638,2628,2596,2570,2562,2555,2536,2532,2524,2520,2519,2516,2515,2516,2513,2514,2515,2517,2522,2533,2536,2540,2544,2553,2575,2641,2670,2734,2768,2847,2879,2897,2891,2882,2869,2853,2836,2830,2821,2809,2806,2801,2803,2803,2808,2810,2811,2802,2784,2759,2728,2708,2678,2642,2631,2598,2561,2548,2540,2537,2537,2534,2531,2530,2524,2519,2514,2528,2590,2652,2696,2700,2699,2692,2689,2682,2696,2701,2715,2716,2715,2711,2709,2705,2706,2704,2687,2681,2650,2642,2609,2601,2576,2572,2564,2560,2562,2562,2566,2570,2572,2570,2571,2569,2568,2565,2567,2565,2575,2599,2618,2636,2727,2829,2862,2888,2931,2948,2959,2960,2953,2940,2928,2920,2905,2879,2865,2857,2821,2801,2777,2750,2732,2710,2700,2659,2636,2627,2614,2609,2589,2590,2586,2590,2601,2615,2625,2629,2637,2641,2623,2601,2593,2588,2587,2585,2587,2590,2594,2601,2615,2642,2685,2710,2809,2838,2897,2959,2974,2972,2963,2953,2931,2918,2911,2876,2846,2832,2825,2797,2792,2771,2769,2742,2716,2711,2686,2682,2660,2657,2637,2633,2625,2613,2599,2598,2593,2590,2586,2584,2586,2582,2581,2584,2579,2582,2580,2593,2656,2741,2869,2931,2944,2931,2922,2901,2898,2869,2843,2812,2780,2766,2737,2733,2720,2701,2696,2666,2663,2652,2638,2628,2610,2606,2598,2595,2589,2585,2575,2573,2602,2623,2760,2908,2901,2877,2847,2815,2754,2720,2702,2687,2670,2638,2633,2619,2598,2586,2570,2567,2556,2544,2520,2512,2503,2492,2495,2486,2487,2482,2487,2483,2490,2500,2506,2526,2598,2719,2840,2947,3008,3009,2999,2956,2936,2895,2844,2835,2817,2796,2774,2750,2734,2714,2671,2650,2593,2578,2553,2534,2522,2522,2518,2509,2513,2506,2511,2507,2515,2511,2519,2522,2538,2600,2692,2736,2852,2894,2964,2997,2997,2960,2865,2779,2738,2716,2682,2657,2643,2638,2622,2609,2594,2582,2581,2568,2556,2537,2538,2532,2522,2508,2512,2509,2548,2616,2759,2828,2933,2934,2928,2916,2898,2855,2846,2825,2795,2785,2765,2759,2721,2701,2683,2646,2617,2600,2595,2573,2557,2536,2523,2510,2484,2482,2472,2476,2473,2466,2471,2512,2589,2716,2804,2879,2973,2990,2992,2981,2923,2839,2774,2733,2709,2674,2648,2630,2569,2529,2510,2494,2488,2481,2490,2493,2487,2483,2481,2484,2494,2507,2580,2698,2830,2955,2978,3030,3030,3032,3022,3011,3010,2997,2993,2950,2906,2884,2838,2790,2765,2760,2720,2715,2675,2669,2646,2630,2626,2591,2572,2560,2560,2542,2546,2542,2536,2542,2539,2540,2546,2538,2544,2537,2540,2540,2540,2536,2559,2566,2608,2642,2752,2802,2840,2960,3034,3032,3001,2969,2955,2933,2891,2885,2863,2846,2812,2792,2782,2721,2702,2667,2627,2622,2609,2593,2585,2576,2578,2574,2570,2559,2551,2545,2546,2538,2536,2532,2543,2560,2574,2668,2750,2870,2969,3006,3013,2967,2919,2846,2797,2743,2707,2677,2651,6
2620,2659,2691,2788,2829,2894,2914,2938,2953,2944,2896,2866,2843,2838,2813,2814,2807,2804,2799,2796,2789,2783,2773,2747,2726,2713,2709,2694,2682,2670,2660,2661,2650,2654,2648,2652,2646,2647,2634,2628,2630,2623,2619,2606,2609,2602,2609,2645,2674,2698,2807,2902,2930,2943,2954,2940,2932,2878,2847,2839,2824,2805,2799,2797,2791,2796,2798,2794,2798,2791,2781,2767,2749,2736,2713,2700,2698,2674,2666,2658,2661,2657,2651,2654,2645,2648,2637,2629,2631,2618,2622,2618,2671,2765,2794,2863,2898,2947,2955,2948,2901,2862,2845,2825,2822,2802,2805,2798,2799,2805,2804,2790,2762,2737,2701,2698,2680,2667,2653,2643,2644,2638,2630,2630,2623,2626,2616,2619,2612,2609,2597,2590,2596,2619,2635,2665,2691,2803,2930,2941,2955,2942,2916,2879,2842,2838,2828,2819,2819,2814,2818,2817,2805,2791,2753,2730,2694,2675,2656,2646,2636,2636,2631,2624,2623,2618,2606,2601,2592,2593,2575,2576,2567,2561,2565,2589,2615,2637,2829,2921,2959,2936,2928,2910,2878,2862,2851,2851,2843,2842,2836,2841,2833,2830,2822,2822,2795,2767,2752,2745,2705,2675,2663,2658,2635,2634,2624,2618,2603,2604,2596,2588,2569,2568,2558,2547,2529,2529,2523,2547,2615,2655,2689,2819,2852,2933,2940,2939,2924,2917,2893,2877,2856,2845,2845,2830,2828,2821,2818,2810,2810,2785,2759,2736,2694,2664,2632,2615,2595,2595,2586,2578,2570,2561,2561,2542,2533,2522,2521,2502,2502,2494,2494,2549,2575,2695,2781,2905,2917,2901,2894,2877,2846,2833,2828,2817,2810,2807,2802,2804,2793,2783,2756,2729,2713,2705,2668,2648,2625,2602,2601,2592,2582,2576,2567,2567,2559,2542,2532,2524,2513,2504,2512,2519,2591,2622,2747,2787,2891,2909,2931,2923,2897,2883,2858,2845,2836,2827,2827,2821,2814,2805,2801,2769,2720,2710,2670,2643,2631,2626,2602,2589,2580,2578,2560,2559,2550,2539,2520,2509,2510,2547,2576,2603,2724,2870,2889,2918,2911,2908,2875,2853,2844,2841,2825,2817,2810,2810,2804,2790,2771,2737,2701,2684,2674,2634,2626,2613,2594,2567,2554,2538,2519,2509,2492,2487,2485,2490,2501,2550,2576,2701,2749,2854,2910,2955,3059,3073,3082,3071,3043,3011,2988,2957,2949,2891,2859,2809,2763,2749,2718,2700,2687,2646,2637,2620,2608,2597,2594,2584,2574,2559,2548,2535,2529,2501,2493,2482,2462,2455,2437,2442,2450,2488,2518,2548,2586,2698,2792,2793,2757,2727,2697,2681,2678,2661,2650,2644,2640,2615,2604,2586,2578,2546,2537,2527,2505,2492,2474,2463,2451,2442,2431,2421,2408,2399,2395,2390,2392,2394,2429,2450,2551,2590,2678,2720,2758,2791,2834,2843,2849,2835,2829,2804,2799,2789,2784,2775,2774,2766,2759,2751,2731,2725,2715,2686,2647,2638,2615,2596,2591,2587,2578,2570,2568,2566,2555,2545,2541,2531,2527,2523,2514,2505,2503,2503,2534,2616,2692,2812,2895,2909,2916,2909,2902,2894,2876,2864,2860,2852,2836,2807,2794,2780,2730,2681,2666,2652,2612,2602,2591,2566,2546,2541,2527,2522,2512,2497,2488,2480,2474,2474,2473,2481,2490,2556,2588,2710,2753,2830,2863,2887,2920,2918,2905,2881,2861,2852,2848,2846,2834,2823,2819,2801,2778,2766,2756,2733,2695,2674,2664,2635,2616,2609,2605,2589,2585,2580,2569,2558,2546,2541,2534,2517,2501,2497,2489,2486,2481,2481,2480,2491,2507,2526,2554,2662,2831,2867,2922,2918,2907,2898,2862,2838,2831,2830,2819,2811,2798,2781,2751,2741,2701,2690,2675,2641,2600,2576,2572,2556,2554,2543,2543,2538,2532,2513,2500,2489,2495,2502,2570,2599,2724,2878,2919,2925,2919,2882,2849,2837,2821,2815,2808,2806,2791,2752,2715,2671,2661,2638,2625,2618,2607,2583,2576,2572,2571,2569,2566,2568,2564,2562,2551,2553,2567,2586,2606,2637,2707,2788,2898,2927,2962,2950,2912,2883,2849,2839,2827,2813,2780,2769,2723,2711,2665,2655,2619,2612,2588,2585,2576,2568,2562,2556,2543,2526,2514,2542,2661,2790,2909,2932,2970,2953,2948,2935,2912,2899,2886,2877,2864,2855,2854,2831,2802,2796,2771,2712,2666,2631,2615,2592,2567,2566,2547,2546,2528,2519,2509,2508,2489,2488,2480,2472,2464,2453,2476,2492,2521,2635,2790,2835,2951,2968,2989,2981,2977,2948,2929,2919,2917,2895,2892,2865,2844,2814,2782,2735,2723,2671,2659,2614,2606,2586,2570,2546,2545,2537,2526,2518,2507,2485,2466,2450,2446,2436,2463,2514,2593,2691,2748,2799,2934,2959,2992,2970,2955,2948,2930,2905,2893,2873,2861,2852,2849,2820,2813,2760,2709,2697,2678,2642,2604,2598,2586,2569,2550,2549,2540,2532,2515,2514,2504,2496,2487,2491,2514,2608,2646,2797,2840,2957,2974,2992,2997,2989,2966,2951,2945,2908,2896,2876,2837,2819,2776,2725,2713,2655,2643,2591,2564,2538,2524,2509,2499,2489,2480,2464,2456,2438,2429,2472,2672,2879,2984,2990,2960,2940,2925,2922,2894,2855,2821,2786,2778,2728,2716,2695,2659,2645,2589,2578,2529,2498,2496,2486,2476,2466,2448,2437,2418,2409,2393,2394,2381,2395,2404,2453,2586,2745,2803,2919,2966,2961,2961,2931,2926,2898,2882,2870,2867,2836,2798,2793,2745,2694,2681,2625,2581,2534,2507,2493,2478,2459,2449,2430,2420,2409,2399,2389,2384,2375,2370,2367,2375,2411,2519,2561,2615,2760,2886,2901,2892,2846,2825,2814,2790,2790,2779,2767,2735,2714,2680,2634,2626,2609,2583,2555,2555,2535,2527,2528,2513,2499,2492,2484,2471,2484,2491,2572,2605,2652,2787,2906,2925,2945,2948,2917,2887,2886,2875,2860,2834,2812,2799,2779,2740,2704,2661,2632,2618,2602,2591,2580,2563,2549,2532,2527,2510,2501,2537,2557,2670,2711,2763,2889,2944,2965,2969,2962,2948,2924,2912,2897,2887,2886,2859,2836,2835,2823,2813,2800,2777,2760,2727,2683,2638,2621,2585,2575,2556,2536,2527,2519,2513,2506,2505,2499,2503,2498,2531,2549,2583,2701,2755,2895,2940,3004,3015,3010,2986,2948,2945,2920,2911,2902,2903,2880,2857,2855,2820,2813,2795,2765,2736,2695,2677,2645,2611,2599,2581,2575,2566,2558,2548,2539,2518,2500,2483,2478,2467,2469,2463,2467,2469,2480,2535,2574,2705,2761,2809,2946,3003,2966,2899,2877,2862,2855,2847,2846,2822,2796,2781,2753,2714,2644,2619,2592,2590,2570,2570,2561,2554,2537,2520,2503,2488,2483,2472,2474,2492,2505,2603,2642,2794,2926,2960,2977,2995,2982,2944,2925,2893,2864,2856,2808,2761,2718,2663,2629,2625,2603,2589,2578,2580,2572,2565,2558,2549,2541,2531,2516,2521,2523,2552,2692,2743,2929,3002,3015,3012,2993,2977,2944,2930,2911,2902,2877,2860,2841,2792,2762,2729,2680,2644,2609,2580,2567,2550,2548,2529,2527,2507,2504,2484,2473,2478,2514,2664,2812,2920,2957,2935,2900,2879,2860,2840,2807,2772,2739,2693,2640,2631,2598,2566,2545,2537,2525,2508,2506,2489,2472,2471,2457,2478,2558,2743,2882,2965,2961,2926,2896,2886,2864,2839,2797,2717,2596,2557,2538,2524,2491,2462,2453,2439,2433,2429,2453,2527,2609,2703,2753,2861,2887,2898,2901,2890,2864,2848,2831,2823,2817,2808,2799,2783,2765,2744,2704,2664,2648,2600,2592,2567,2556,2545,2532,2530,2516,2514,2500,2497,2484,2481,2476,2466,2481,2551,2664,2710,2826,2891,2896,2899,2875,2841,2826,2816,2810,2808,2791,2789,2773,2768,2751,2716,2682,2644,2636,2608,2593,2575,2568,2557,2556,2544,2535,2521,2511,2516,2561,2662,2783,2881,2914,2904,2893,2872,2849,2831,2812,2788,2777,2747,2736,2726,2689,2678,2631,2603,2597,2576,2562,2553,2541,2516,2493,2496,2725,2924,2917,2880,2867,2852,2845,2825,2820,2803,2798,2775,2767,2733,2721,2682,2671,2658,2628,2612,2596,2578,2568,2554,2548,2534,2517,2513,2498,2495,2490,2484,2473,2471,2470,2477,2506,2596,2768,2811,2895,2912,2885,2856,2836,2827,2814,2797,2765,2745,2713,2687,2650,2615,2586,2565,2550,2535,2517,2494,2482,2476,2472,2471,2474,2504,2589,2799,2892,2911,2879,2849,2832,2829,2822,2815,2809,2793,2771,2761,2723,2711,2673,2663,2633,2613,2595,2587,2576,2566,2556,2552,2541,2523,2512,2610,2819,2954,2902,2856,2836,2824,2814,2805,2765,2720,2666,2617,2593,2585,2572,2564,2551,2549,2545,2537,2534,2526,2525,2560,2647,2775,2932,2979,2969,2928,2906,2895,2882,2878,2863,2859,2840,2833,2806,2796,2760,2679,2630,2612,2592,2581,2563,2551,2538,2535,2539,2551,2619,2741,2786,2914,2944,2990,2988,2961,2946,2913,2903,2888,2884,2878,2873,2859,2856,2850,2832,2801,2791,2723,2687,2647,2623,2617,2601,2598,2582,2574,2565,2557,2546,2539,2528,2514,2507,2510,2548,2606,2737,2783,2917,2946,2987,2937,2925,2885,2865,2850,2838,2829,2809,2803,2792,2769,2731,2687,2636,2606,2580,2566,2560,2559,2538,2530,2523,2504,2489,2494,2597,2773,2886,2932,2898,2880,2838,2807,2803,2790,2789,2779,2779,2765,2740,2694,2656,2605,2571,2548,2527,2515,2511,2501,2495,2489,2481,2476,2476,2464,2462,2517,2623,2748,2850,2878,2863,2792,2758,2747,2744,2747,2746,2749,2745,2725,2718,2705,2673,2633,2608,2584,2561,2550,2542,2543,2539,2540,2541,2536,2539,2577,2673,2710,2754,2868,2933,2935,2916,2899,2887,2840,2831,2809,2810,2812,2818,2803,2787,2753,2736,2697,2657,2634,2621,2604,2595,2594,2586,2574,2565,2597,2617,2648,2755,2873,2901,2953,2951,2931,2907,2873,2858,2852,2852,2842,2838,2810,2767,2728,2683,2649,2613,2584,2570,2563,2555,2546,2538,2521,2510,2504,2507,2531,2620,2657,2703,2830,2920,2940,2923,2894,2881,2864,2857,2856,2848,2840,2830,2820,2818,2796,2791,2757,2749,2675,2639,2623,2597,2571,2557,2535,2521,2497,2475,2479,2523,2632,2807,2895,2918,2890,2862,2835,2819,2800,2786,2777,2756,2719,2709,2692,2654,2605,2591,2569,2547,2546,2539,2531,2516,2516,2497,2489,2477,2461,2454,2453,2442,2463,2508,2624,2754,2797,2874,2860,2806,2792,2774,2759,2760,2744,2726,2704,2661,2647,2628,2621,2594,2580,2563,2563,2552,2541,2537,2527,2514,2502,2507,2533,2560,2658,2785,2819,2895,2875,2803,2788,2788,2783,2762,2717,2683,2667,2637,2607,2604,2584,2569,2570,2563,2559,2553,2542,2538,2531,2533,2521,2522,2598,2756,2803,2903,2926,2935,16
2783,2831,2838,2842,2820,2808,2778,2753,2744,2740,2739,2742,2744,2744,2744,2726,2718,2710,2696,2686,2679,2654,2645,2640,2638,2630,2629,2624,2620,2619,2607,2599,2596,2596,2601,2606,2618,2671,2696,2745,2808,2836,2835,2816,2805,2783,2774,2764,2739,2733,2734,2737,2734,2730,2726,2714,2690,2670,2656,2650,2635,2630,2627,2619,2615,2607,2602,2595,2589,2585,2583,2574,2577,2582,2623,2666,2712,2773,2803,2800,2776,2755,2729,2723,2715,2714,2715,2728,2737,2737,2732,2726,2711,2702,2691,2623,2579,2567,2531,2522,2490,2488,2490,2517,2550,2599,2685,2716,2772,2799,2825,2916,2974,2993,3044,3058,3067,3072,3036,3013,2927,2891,2817,2779,2740,2637,2607,2560,2544,2529,2507,2503,2501,2498,2497,2492,2487,2479,2479,2497,2508,2523,2572,2590,2618,2626,2635,2630,2611,2603,2589,2588,2591,2612,2625,2651,2663,2674,2701,2695,2690,2666,2640,2607,2602,2603,2618,2627,2658,2667,2683,2682,2676,2674,2670,2659,2666,2669,2680,2681,2681,2672,2646,2621,2613,2597,2589,2581,2544,2537,2543,2572,2593,2648,2678,2708,2811,2814,2789,2759,2742,2726,2684,2673,2659,2648,2645,2646,2644,2636,2631,2620,2614,2607,2574,2554,2549,2537,2555,2569,2632,2656,2741,2761,2762,2758,2728,2717,2676,2656,2654,2661,2673,2671,2668,2658,2628,2613,2600,2606,2632,2651,2672,2790,2819,2826,2817,2780,2767,2752,2718,2706,2693,2685,2686,2689,2687,2679,2672,2659,2638,2618,2615,2620,2631,2663,2682,2705,2771,2790,2813,2816,2811,2790,2778,2763,2723,2712,2694,2689,2684,2683,2692,2694,2693,2689,2680,2675,2669,2642,2627,2622,2631,2642,2719,2788,2806,2835,2830,2798,2758,2745,2734,2719,2712,2707,2710,2712,2717,2717,2713,2708,2689,2681,2659,2647,2634,2624,2622,2620,2618,2619,2639,2653,2715,2764,2790,2831,2856,2848,2810,2794,2751,2730,2716,2712,2714,2722,2723,2721,2710,2690,2684,2664,2660,2649,2645,2644,2632,2632,2627,2623,2621,2622,2632,2658,2724,2803,2823,2863,2864,2852,2842,2827,2768,2737,2726,2723,2732,2732,2735,2731,2717,2702,2679,2674,2663,2657,2655,2649,2647,2645,2644,2640,2640,2634,2633,2637,2673,2715,2760,2833,2842,2844,2826,2802,2786,2775,2732,2720,2720,2728,2730,2732,2729,2715,2700,2677,2664,2656,2651,2646,2638,2637,2637,2634,2634,2631,2628,2627,2640,2688,2733,2805,2849,2854,2838,2801,2786,2761,2741,2730,2727,2734,2737,2743,2739,2725,2716,2692,2684,2665,2658,2646,2643,2638,2635,2636,2633,2632,2631,2629,2629,2626,2624,2692,2790,2846,2850,2802,2744,2739,2747,2743,2726,2699,2676,2653,2641,2631,2626,2622,2618,2617,2614,2613,2614,2610,2604,2600,2596,2598,2601,2614,2692,2795,2814,2850,2836,2828,2786,2776,2752,2741,2737,2729,2735,2741,2743,2745,2740,2724,2713,2695,2688,2677,2655,2646,2635,2633,2627,2620,2612,2612,2609,2603,2604,2598,2598,2595,2591,2588,2582,2573,2575,2592,2609,2676,2765,2789,2848,2852,2849,2827,2813,2786,2757,2747,2744,2740,2752,2753,2749,2727,2720,2688,2679,2667,2638,2626,2620,2616,2612,2609,2611,2608,2605,2598,2594,2584,2579,2585,2592,2620,2694,2771,2796,2812,2834,2811,2760,2731,2721,2723,2728,2727,2746,2735,2732,2716,2683,2677,2664,2645,2636,2626,2620,2614,2611,2611,2606,2596,2602,2662,2689,2760,2822,2830,2839,2836,2807,2772,2758,2740,2730,2731,2736,2745,2748,2730,2713,2693,2687,2656,2638,2621,2615,2609,2607,2602,2601,2596,2593,2588,2585,2588,2588,2623,2639,2687,2717,2743,2839,2867,2863,2843,2828,2819,2784,2766,2759,2759,2764,2767,2770,2757,2754,2737,2723,2716,2682,2675,2664,2644,2635,2624,2618,2611,2601,2602,2598,2587,2582,2577,2579,2582,2627,2646,2732,2759,2837,2865,2864,2840,2826,2816,2795,2778,2762,2763,2763,2767,2766,2766,2742,2702,2689,2665,2640,2636,2618,2617,2604,2597,2593,2584,2584,2574,2575,2569,2564,2558,2554,2557,2556,2589,2605,2686,2714,2807,2827,2860,2872,2846,2840,2803,2798,2775,2770,2773,2772,2775,2760,2757,2725,2718,2682,2676,2656,2645,2642,2618,2610,2604,2592,2594,2587,2584,2573,2575,2568,2559,2556,2549,2545,2541,2563,2674,2797,2857,2860,2825,2796,2771,2764,2768,2775,2768,2739,2718,2694,2648,2623,2607,2603,2600,2590,2587,2577,2577,2563,2556,2549,2550,2571,2643,2732,2822,2838,2869,2864,2862,2832,2775,2769,2773,2761,2741,2703,2694,2656,2649,2621,2608,2599,2590,2584,2586,2577,2575,2569,2564,2553,2542,2539,2530,2530,2542,2570,2685,2795,2891,2925,2932,2910,2904,2882,2867,2843,2820,2814,2799,2767,2727,2679,2655,2642,2630,2612,2607,2589,2565,2557,2537,2523,2526,2536,2594,2687,2730,2834,2869,2910,2925,2920,2899,2874,2848,2813,2810,2800,2793,2799,2796,2793,2765,2759,2742,2708,2683,2648,2643,2630,2611,2603,2594,2593,2587,2589,2583,2575,2569,2561,2561,2555,2535,2522,2564,2650,2758,2830,2884,2897,2839,2803,2777,2783,2762,2643,2604,2585,2584,2583,2575,2576,2569,2557,2552,2535,2535,2569,2649,2871,2926,2915,2880,2825,2815,2795,2773,2762,2758,2761,2757,2764,2752,2751,2738,2711,2685,2642,2603,2601,2590,2580,2576,2569,2568,2554,2528,2507,2476,2462,2455,2448,2463,2549,2710,2860,2879,2910,2879,2870,2814,2776,2750,2748,2755,2760,2761,2750,2726,2708,2673,2655,2626,2613,2596,2587,2581,2574,2569,2573,2567,2568,2565,2556,2558,2544,2546,2529,2576,2674,2791,2836,2921,2942,2947,2912,2850,2805,2789,2774,2768,2779,2779,2790,2784,2751,2706,2654,2629,2604,2596,2591,2580,2579,2566,2555,2560,2576,2598,2674,2713,2820,2858,2919,2930,2918,2909,2849,2798,2754,2745,2763,2766,2760,2742,2724,2699,2690,2670,2623,2608,2597,2591,2579,2574,2575,2567,2563,2560,2621,2713,2905,2951,2958,2957,2872,2828,2793,2787,2800,2793,2776,2731,2692,2666,2626,2613,2602,2594,2591,2576,2571,2557,2560,2572,2704,2850,2932,2921,2860,2794,2774,2763,2776,2760,2717,2656,2622,2590,2578,2571,2562,2561,2553,2548,2550,2543,2543,2564,2641,2740,2849,2870,2914,2908,2909,2829,2789,2762,2761,2771,2775,2780,2758,2753,2707,2697,2648,2639,2586,2586,2567,2565,2557,2556,2547,2552,2552,2603,2623,2688,2729,2761,2866,2884,2907,2892,2845,2789,2768,2755,2762,2779,2770,2731,2692,2641,2616,2596,2581,2568,2569,2553,2544,2537,2535,2578,2665,2710,2746,2930,2958,2939,2881,2845,2809,2795,2784,2787,2785,2779,2766,2735,2715,2705,2625,2594,2566,2563,2554,2545,2545,2531,2532,2517,2517,2501,2502,2503,2536,2673,2812,2918,2944,2954,2958,2943,2912,2898,2875,2829,2812,2793,2791,2783,2777,2772,2761,2733,2715,2704,2652,2641,2613,2596,2569,2558,2544,2535,2520,2513,2509,2494,2477,2458,2461,2507,2576,2621,2761,2812,2915,2938,2946,2941,2924,2840,2796,2774,2779,2775,2772,2735,2688,2646,2618,2603,2578,2568,2565,2548,2549,2537,2539,2527,2520,2513,2513,2493,2475,2473,2518,2542,2616,2664,2803,2849,2883,2952,2910,2828,2787,2773,2765,2763,2774,2772,2767,2757,2704,2600,2569,2553,2541,2530,2525,2512,2496,2484,2478,2498,2582,2716,2972,2986,2930,2873,2840,2818,2801,2804,2807,2808,2776,2711,2600,2568,2555,2544,2544,2537,2536,2532,2527,2525,2512,2488,2478,2534,2751,2854,2969,3002,2999,2951,2885,2863,2811,2785,2783,2781,2787,2791,2766,2721,2669,2635,2603,2589,2537,2516,2503,2478,2465,2509,2664,2715,2870,2913,2991,2957,2864,2807,2784,2776,2787,2791,2792,2787,2768,2705,2650,2592,2562,2551,2539,2533,2531,2523,2513,2504,2491,2510,2631,2776,2948,2996,2986,2933,2859,2837,2776,2766,2771,2774,2790,2790,2784,2778,2734,2717,2635,2565,2476,2451,2433,2414,2416,2525,2664,2719,2823,2958,2967,2958,2924,2836,2801,2769,2771,2784,2785,2781,2759,2692,2637,2571,2547,2531,2526,2513,2512,2501,2515,2534,2589,2713,2814,2948,3007,3014,3007,2916,2847,2801,2808,2819,2831,2831,2833,2809,2797,2765,2742,2725,2663,2617,2600,2576,2560,2553,2551,2548,2543,2542,2537,2546,2605,2768,2860,2981,2985,2954,2877,2809,2764,2755,2766,2769,2783,2779,2759,2709,2654,2586,2548,2533,2522,2509,2500,2523,2591,2714,2840,2881,2931,2941,2949,2872,2822,2775,2731,2718,2719,2730,2737,2736,2719,2684,2650,2597,2560,2544,2523,2512,2510,2491,2488,2485,2496,2584,2663,2704,2755,2878,2951,2953,2957,2915,2900,2856,2830,2815,2766,2762,2747,2756,2749,2730,2669,2647,2602,2583,2556,2550,2521,2519,2498,2499,2494,2496,2553,2614,2724,2830,2878,2844,2794,2739,2717,2708,2713,2722,2731,2736,2740,2714,2648,2559,2531,2555,2635,2707,2808,2886,2862,2823,2737,2708,2715,2722,2724,2714,2692,2666,2615,2606,2580,2543,2539,2677,2748,2877,2867,2811,2762,2721,2712,2725,2721,2688,2661,2590,2547,2529,2573,2651,2690,2756,2846,2854,2840,2821,2778,2720,2705,2701,2701,2692,2672,2627,2619,2572,2541,2507,2496,2536,2712,2819,2792,2752,2703,2697,2672,2677,2673,2683,2676,2678,2647,2567,2551,2528,2522,2507,2508,2499,2563,2661,2692,2794,2841,2851,2832,2826,2782,2775,2743,2737,2733,2738,2730,2717,2672,2631,2608,2582,2573,2565,2559,2550,2542,2534,2539,2541,2595,2673,2733,2816,2829,2820,2795,2752,2726,2718,2719,2716,2705,2672,2665,2647,2616,2582,2568,2552,2551,2545,2548,2550,2555,2562,2566,2585,2590,2609,2708,2774,2805,2844,2917,2936,2948,2943,2944,2916,2912,2880,2866,2848,2836,2817,2803,2780,2772,2720,2670,2612,2533,2512,2474,2467,2461,2458,2460,2460,2455,2453,2457,2455,2480,2537,2570,2663,2775,2809,2792,2771,2763,2728,2712,2704,2699,2700,2705,2704,2701,2689,2672,2653,2621,2605,2592,2585,2578,2580,2576,2574,2578,2579,2578,2574,2575,2565,2558,2552,2542,2535,2540,2552,2610,2707,2738,2773,2845,2862,2871,2870,2838,2828,2814,2790,2780,2773,2775,2777,2787,2786,2765,2754,2727,2694,2688,2676,2653,2639,2640,2630,2625,2620,2613,2599,2589,2621,2694,2856,2899,2918,2918,2864,2839,2819,2804,2801,2803,2805,2807,2801,20
2494,2449,2441,2430,2406,2387,2387,2396,2479,2667,2744,2994,3064,3169,3201,3210,3121,2985,2896,2824,2795,2774,2735,2727,2724,2717,2689,2630,2608,2531,2508,2462,2439,2422,2363,2350,2324,2300,2294,2275,2281,2446,2579,2866,2991,2966,2865,2737,2718,2689,2675,2680,2682,2697,2696,2688,2682,2669,2623,2562,2545,2525,2478,2461,2435,2426,2412,2372,2354,2337,2315,2306,2307,2349,2508,2582,2670,2936,3137,3187,3136,3102,3011,2919,2787,2766,2749,2747,2759,2768,2770,2762,2726,2703,2646,2582,2568,2548,2489,2460,2445,2417,2407,2463,2498,2675,2890,2961,3119,3068,2910,2867,2781,2744,2750,2774,2810,2808,2770,2697,2648,2583,2560,2499,2455,2418,2457,2678,2924,3199,3243,3145,2857,2764,2761,2795,2801,2814,2813,2784,2761,2744,2638,2605,2522,2349,2254,2179,2166,2226,2580,2893,2987,2981,2910,2866,2828,2700,2620,2600,2595,2616,2655,2670,2681,2660,2641,2628,2562,2544,2481,2466,2413,2404,2386,2355,2339,2324,2330,2398,2601,2889,3186,3350,3372,3321,3284,3230,3003,2843,2828,2805,2833,2838,2849,2806,2787,2756,2665,2565,2489,2426,2416,2347,2337,2446,2764,3052,3284,3301,3228,3183,3063,2874,2748,2719,2740,2825,2830,2798,2770,2656,2630,2538,2466,2438,2422,2444,2625,2890,3159,3216,3267,3283,3166,3100,2968,2791,2677,2651,2656,2673,2706,2718,2670,2558,2471,2389,2349,2312,2350,2400,2457,2734,3073,3186,3276,3445,3451,3375,3314,3038,2869,2823,2758,2747,2751,2761,2766,2751,2740,2631,2520,2452,2392,2325,2299,2286,2254,2334,2548,3000,3300,3413,3413,3384,3232,3022,2963,2901,2782,2727,2727,2721,2727,2719,2715,2596,2494,2384,2303,2274,2258,2191,2235,2447,2772,2897,3207,3280,3346,3243,3040,2798,2724,2682,2671,2675,2678,2642,2626,2596,2469,2347,2327,2260,2224,2207,2179,2165,2158,2227,2429,2760,2875,3187,3321,3204,3005,2806,2686,2658,2649,2644,2668,2666,2668,2623,2603,2570,2474,2371,2315,2257,2238,2215,2211,2199,2187,2170,2176,2182,2296,2358,2646,2754,3088,3169,3281,3281,3114,3046,2826,2770,2652,2643,2657,2699,2740,2759,2753,2740,2651,2579,2473,2436,2361,2303,2292,2255,2258,2318,2374,2618,2730,3068,3174,3255,3384,3375,3181,2956,2880,2722,2652,2652,2690,2696,2701,2635,2571,2424,2339,2311,2295,2248,2226,2216,2214,2211,2314,2389,2705,3375,3619,3612,3484,3111,2905,2847,2840,2837,2814,2791,2701,2570,2445,2334,2308,2240,2203,2190,2185,2159,2166,2185,2227,2445,2812,2946,3085,3405,3472,3506,3476,3285,3212,2987,2871,2771,2750,2736,2739,2738,2737,2688,2665,2559,2522,2399,2328,2248,2189,2156,2126,2105,2131,2160,2371,2473,2864,2998,3131,3461,3440,3396,3176,3097,2942,2765,2685,2676,2686,2701,2682,2659,2637,2532,2497,2455,2312,2238,2217,2179,2154,2152,2146,2136,2131,2168,2344,2792,3164,3400,3409,3160,3078,2841,2691,2663,2651,2710,2763,2749,2732,2635,2598,2475,2439,2402,2320,2263,2252,2223,2220,2253,2293,2500,2711,3070,3337,3387,3407,3338,3121,3036,2948,2727,2673,2605,2593,2590,2639,2662,2705,2721,2728,2680,2617,2506,2433,2371,2295,2243,2229,2226,2342,2621,2747,3158,3489,3552,3590,3547,3493,3422,3090,2885,2757,2749,2773,2737,2646,2524,2482,2444,2340,2265,2243,2226,2181,2309,2486,2730,3146,3274,3525,3543,3501,3446,3218,3140,2938,2890,2803,2793,2791,2797,2789,2760,2671,2632,2546,2419,2317,2244,2197,2156,2180,2345,2673,2806,3212,3323,3513,3504,3336,3087,3006,2932,2775,2723,2742,2777,2773,2758,2675,2601,2562,2524,2487,2392,2326,2310,2297,2267,2259,2252,2234,2407,2700,3069,3183,3282,3448,3332,3184,3020,2943,2873,2733,2702,2713,2729,2786,2798,2786,2765,2662,2529,2486,2445,2345,2274,2258,2246,2278,2318,2648,3008,3123,3226,3404,3363,3305,3070,2981,2695,2653,2597,2600,2654,2657,2638,2546,2427,2390,2293,2230,2185,2166,2251,2635,3070,3449,3612,3607,3530,3308,3141,3062,2883,2789,2777,2768,2760,2746,2687,2581,2494,2365,2259,2159,2103,2096,2221,2527,2657,2799,3203,3310,3388,3437,3262,3106,2894,2797,2766,2739,2717,2724,2727,2722,2655,2627,2514,2400,2363,2275,2228,2170,2130,2121,2201,2267,2561,2951,3072,3369,3362,3198,2949,2873,2690,2616,2635,2657,2654,2643,2563,2456,2347,2249,2214,2193,2191,2184,2176,2225,2273,2333,2623,3212,3391,3338,3129,2881,2817,2702,2726,2753,2793,2905,2936,2961,2955,2944,2847,2663,2574,2460,2342,2322,2446,2711,3042,3136,3314,3275,3226,3155,2910,2824,2629,2538,2556,2627,2626,2524,2411,2335,2241,2181,2162,2153,2169,2209,2549,2954,3100,3438,3541,3508,3302,2863,2744,2735,2730,2714,2641,2516,2473,2425,2299,2145,2090,2084,2114,2338,2448,2581,3153,3487,3455,3268,3113,2906,2753,2739,2715,2717,2710,2663,2536,2413,2367,2258,2222,2152,2129,2093,2078,2054,2070,2109,2159,2449,2576,2722,3152,3449,3487,3329,2867,2711,2680,2689,2667,2603,2533,2404,2249,2221,2138,2066,2038,2013,2166,2619,3069,3408,3513,3486,3216,2964,2887,2716,2705,2760,2794,2646,2318,2134,2093,2179,2781,3148,3357,3183,2915,2673,2527,2513,2502,2551,2572,2642,2648,2628,2598,2491,2444,2324,2282,2198,2172,2127,2111,2089,2099,2220,2512,2770,3159,3268,3406,3414,3248,2994,2918,2721,2683,2623,2629,2680,2698,2671,2593,2553,2438,2324,2298,2265,2206,2154,2139,2124,2125,2149,2308,2647,2782,2934,3339,3446,3586,3586,3439,3203,3117,3045,2863,2771,2780,2789,2786,2734,2511,2361,2285,2228,2198,2183,2169,2215,2269,2333,2655,2784,3206,3322,3551,3529,3412,3089,2893,2842,2774,2763,2786,2802,2783,2694,2661,2527,2405,2300,2218,2190,2159,2159,2171,2210,2530,2648,3065,3397,3502,3460,3237,3152,3056,2821,2675,2658,2643,2667,2678,2698,2717,2655,2628,2514,2409,2373,2348,2280,2269,2230,2225,2199,2210,2229,2272,2490,2600,2714,3094,3370,3422,3440,3292,3041,2948,2731,2622,2619,2621,2690,2760,2780,2716,2615,2539,2435,2363,2312,2342,2504,2809,2923,3261,3341,3407,3438,3407,3194,3108,2838,2767,2658,2622,2607,2620,2715,2736,2732,2667,2556,2416,2341,2301,2315,2489,2821,2960,3096,3470,3648,3657,3634,3388,3310,3075,2900,2888,2881,2899,2892,2886,2723,2577,2433,2355,2271,2225,2195,2186,2265,2505,2890,3271,3490,3506,3428,3217,3144,3066,2936,2839,2761,2725,2701,2538,2406,2286,2183,2073,2016,2074,2282,3021,3130,3058,2949,2719,2608,2566,2576,2520,2434,2340,2252,2190,2143,2117,2077,2136,2404,2907,3050,3066,2912,2721,2694,2657,2664,2671,2718,2740,2739,2727,2667,2571,2542,2483,2412,2363,2352,2343,2337,2331,2331,2396,2656,2933,3213,3204,3053,2867,2741,2715,2705,2713,2765,2792,2787,2707,2651,2596,2531,2498,2463,2434,2500,2543,2751,3012,3097,3166,3283,3235,3088,2921,2795,2787,2836,2856,2846,2835,2793,2735,2672,2552,2482,2418,2382,2347,2395,2498,2756,3061,3154,3229,3326,3261,3062,2877,2858,2855,2800,2723,2628,2542,2515,2452,2433,2393,2380,2352,2342,2315,2308,2366,2645,2745,3057,3150,3320,3338,3283,2975,2865,2811,2805,2803,2803,2801,2775,2707,2677,2644,2504,2413,2364,2309,2259,2234,2221,2202,2187,2222,2378,2768,3088,3290,3177,2829,2715,2624,2625,2693,2714,2640,2606,2496,2371,2348,2315,2292,2272,2266,2248,2241,2223,2222,2272,2316,2538,2637,2973,3178,3360,3348,3226,3138,3042,3007,3015,3046,3055,3061,3002,2896,2764,2596,2472,2405,2398,2388,2389,2405,2506,2747,3236,3566,3711,3650,3461,3314,2965,2923,2909,2889,2851,2835,2815,2761,2680,2599,2539,2436,2375,2292,2288,2324,2569,3473,3906,3787,3447,3180,2903,2731,2485,2237,2087,2037,1908,1804,1778,1751,1709,1644,1617,1625,1743,1916,2442,2853,3137,3117,2874,2821,2697,2618,2608,2609,2606,2578,2572,2560,2544,2530,2521,2518,2511,2482,2419,2366,2323,2278,2238,2311,2367,2648,2767,2899,3271,3492,3512,3511,3377,2967,2759,2611,2628,2627,2510,2354,2131,2057,2043,2034,2035,2031,2030,2035,2040,2191,2598,3130,3412,3483,3420,3232,3152,2934,2871,2824,2737,2732,2745,2757,2777,2817,2777,2721,2612,2532,2421,2344,2288,2280,2254,2252,2245,2265,2450,2862,3407,3532,3337,2957,2716,2714,2752,2753,2709,2646,2568,2503,2430,2377,2363,2311,2316,2457,2755,2886,3271,3559,3512,3296,2937,2726,2577,2605,2591,2516,2375,2246,2188,2134,2150,2214,2454,2578,3023,3477,3590,3687,3762,3573,3398,3215,2996,2816,2792,2767,2684,2605,2565,2423,2383,2337,2239,2154,2137,2108,2095,2092,2121,2312,2410,2533,2956,3347,3430,3493,3367,3100,2830,2662,2627,2613,2614,2634,2646,2687,2662,2645,2540,2505,2380,2348,2255,2238,2194,2191,2179,2187,2597,3012,3397,3597,3599,3475,3390,3201,3106,3006,2788,2739,2697,2704,2715,2747,2889,2940,2830,2582,2452,2273,2211,2317,2585,3100,3464,3309,3016,2733,2521,2502,2514,2565,2600,2675,2705,2697,2674,2634,2611,2577,2544,2523,2510,2454,2481,2519,2588,2898,3040,3467,3595,3773,3812,3832,3702,3625,3306,3202,2848,2709,2744,2708,2641,2461,2214,2111,2051,2010,2544,3013,3426,3581,3403,3113,3007,2917,2692,2598,2586,2593,2628,2646,2652,2647,2533,2487,2361,2157,2096,2066,2052,2040,2106,2171,2248,2617,2763,2925,3461,3587,3574,3368,2750,2573,2524,2539,2597,2623,2639,2587,2464,2329,2202,2174,2096,2085,2053,2041,2059,2177,2908,3586,3764,3480,3422,3631,3522,3074,2480,2293,2193,2386,3379,3966,3583,3303,3134,3112,3207,3370,3398,3466,3475,3496,3455,3349,3153,2916,2847,2804,2806,3016,3112,3222,3491,3582,3461,3225,2961,2740,2716,2760,2802,2749,2562,2389,2283,2151,2040,1960,2003,2253,2677,3418,3310,2981,2582,2227,1998,1837,1799,1731,1681,1642,1666,1689,1740,1821,2050,2590,2746,3354,3302,3061,2752,2631,2629,2612,2509,2225,2021,1886,1850,1835,1849,1881,2076,2741,3233,3136,2867,2523,2636,2688,2417,2115,1976,2018,2009,1792,1494,1482,1483,1483,1483,1483,1483,1482,1483,1486,1499,1895,2358,2529,2856,3095,18
2726,2726,2724,2714,2709,2707,2708,2703,2703,2699,2693,2692,2681,2672,2655,2641,2630,2625,2594,2572,2563,2549,2505,2484,2472,2466,2455,2457,2452,2454,2461,2492,2513,2614,2639,2714,2728,2751,2761,2762,2771,2766,2764,2765,2760,2754,2747,2742,2737,2738,2730,2717,2698,2694,2685,2671,2667,2645,2642,2624,2622,2615,2604,2600,2598,2596,2588,2585,2585,2579,2588,2671,2778,2842,2867,2872,2864,2835,2803,2784,2771,2754,2742,2726,2719,2704,2694,2688,2671,2661,2637,2604,2578,2536,2478,2454,2425,2410,2398,2393,2378,2372,2371,2374,2396,2415,2491,2524,2556,2681,2738,2747,2764,2770,2770,2770,2763,2756,2752,2750,2741,2740,2736,2733,2733,2728,2724,2720,2697,2689,2673,2663,2650,2645,2638,2631,2623,2613,2612,2622,2650,2691,2772,2846,2865,2889,2898,2898,2896,2889,2887,2873,2870,2859,2854,2840,2835,2832,2819,2814,2795,2789,2780,2756,2737,2728,2721,2696,2663,2646,2638,2627,2620,2619,2612,2608,2607,2604,2596,2596,2596,2610,2622,2638,2679,2704,2727,2782,2780,2701,2650,2540,2404,2210,2042,1791,1720,1562,1487,1482,1482,1482,1482,1482,1482,1482,1482,1483,1483,1482,1487,1492,1527,1545,1566,1615,1672,1753,1779,1847,1872,1969,2014,2176,2362,2422,2530,2615,2649,2721,2741,2760,2800,2823,2900,2951,3022,3041,3060,3099,3135,3162,3195,3336,3511,3571,3728,3798,3824,3856,3860,3850,3835,3764,3733,3702,3609,3539,3511,3487,3458,3440,3422,3337,3271,3207,3182,3149,3157,3216,3247,3339,3368,3419,3427,3421,3416,3386,3377,3341,3317,3305,3278,3238,3200,3153,3101,3081,3063,3027,3008,2961,2944,2904,2878,2865,2841,2813,2802,2794,2754,2735,2726,2705,2682,2678,2673,2676,2717,2827,2916,2978,2988,2999,2983,2963,2934,2907,2896,2873,2865,2850,2845,2836,2819,2793,2770,2748,2725,2713,2704,2682,2670,2642,2623,2597,2571,2561,2540,2525,2507,2505,2537,2610,2644,2715,2747,2781,2871,2891,2893,2898,2898,2892,2881,2876,2866,2840,2821,2791,2769,2759,2735,2723,2693,2680,2650,2637,2616,2608,2597,2570,2559,2553,2536,2522,2495,2475,2463,2456,2454,2439,2438,2426,2426,2427,2448,2491,2523,2625,2666,2766,2813,2853,2861,2865,2860,2860,2853,2838,2828,2811,2805,2793,2778,2774,2765,2747,2736,2731,2700,2679,2647,2601,2580,2560,2529,2524,2509,2494,2479,2469,2456,2447,2446,2432,2432,2428,2422,2423,2413,2413,2407,2402,2404,2435,2504,2541,2574,2688,2771,2794,2829,2840,2841,2853,2855,2852,2846,2835,2826,2818,2814,2818,2815,2815,2810,2807,2769,2755,2690,2669,2587,2531,2459,2390,2372,2348,2301,2278,2196,2174,2115,2108,2110,2131,2162,2184,2203,2294,2366,2485,2601,2628,2698,2711,2729,2749,2768,2775,2776,2785,2781,2780,2774,2771,2765,2757,2748,2729,2711,2678,2659,2650,2649,2642,2637,2640,2648,2659,2670,2674,2692,2705,2728,2741,2762,2784,2841,2904,2930,2987,3009,3022,3015,3015,2996,2968,2949,2920,2898,2881,2853,2838,2812,2795,2739,2714,2664,2619,2585,2564,2539,2517,2508,2491,2473,2471,2472,2520,2542,2646,2753,2814,2872,2877,2888,2895,2896,2884,2870,2835,2819,2806,2786,2752,2715,2685,2646,2639,2603,2582,2555,2532,2524,2508,2508,2492,2485,2468,2461,2466,2482,2495,2581,2729,2840,2867,2876,2880,2875,2877,2863,2850,2839,2819,2808,2792,2780,2755,2719,2677,2649,2613,2596,2592,2564,2561,2547,2537,2536,2516,2499,2499,2491,2484,2485,2470,2470,2484,2673,2790,2861,2899,2899,2894,2873,2859,2846,2834,2824,2826,2817,2808,2797,2786,2767,2753,2726,2710,2685,2671,2649,2635,2623,2609,2596,2575,2556,2548,2539,2531,2540,2571,2621,2658,2758,2798,2874,2897,2904,2925,2917,2908,2907,2884,2871,2842,2829,2818,2777,2752,2715,2692,2687,2650,2646,2616,2613,2587,2586,2563,2562,2543,2535,2526,2527,2519,2512,2507,2528,2539,2624,2735,2856,2930,2968,2974,2967,2958,2932,2910,2877,2857,2845,2826,2813,2786,2770,2738,2722,2714,2690,2654,2616,2600,2596,2570,2568,2544,2543,2523,2523,2514,2504,2504,2489,2506,2545,2604,2766,2803,2874,2907,2924,2945,2964,2965,2961,2949,2920,2903,2884,2872,2850,2820,2792,2767,2725,2698,2690,2648,2641,2606,2600,2585,2568,2564,2538,2534,2509,2507,2495,2487,2486,2470,2462,2463,2450,2447,2452,2453,2480,2567,2644,2732,2848,2905,2938,2964,2961,2950,2918,2912,2874,2868,2833,2809,2772,2720,2694,2663,2608,2584,2555,2539,2535,2511,2509,2496,2487,2486,2467,2467,2449,2450,2433,2434,2427,2428,2435,2495,2558,2640,2765,2879,2911,2904,2902,2878,2847,2824,2817,2798,2779,2711,2670,2638,2597,2586,2566,2554,2545,2543,2528,2528,2522,2515,2509,2501,2492,2520,2588,2703,2784,2854,2879,2929,2932,2919,2901,2877,2859,2832,2824,2822,2813,2775,2753,2717,2672,2661,2634,2619,2610,2569,2540,2531,2520,2507,2506,2494,2487,2477,2494,2506,2530,2623,2756,2876,2955,2979,2974,2944,2877,2822,2727,2653,2609,2577,2540,2517,2514,2496,2484,2484,2478,2472,2466,2460,2454,2462,2471,2544,2665,2716,2762,2855,2928,2994,3001,3012,3002,2984,2951,2919,2893,2870,2824,2780,2718,2670,2591,2514,2462,2429,2402,2380,2421,2514,2651,2697,2826,2854,2897,2911,2918,2923,2920,2907,2897,2875,2863,2845,2827,2795,2788,2778,2747,2708,2696,2655,2643,2607,2598,2570,2563,2554,2540,2535,2518,2514,2509,2496,2484,2481,2477,2469,2466,2453,2450,2443,2453,2516,2547,2673,2720,2885,2970,2958,2926,2897,2865,2856,2829,2821,2792,2755,2712,2670,2629,2586,2544,2530,2509,2467,2430,2415,2402,2364,2339,2332,2321,2319,2320,2323,2386,2457,2550,2603,2713,2766,2816,2925,2967,2994,2998,2997,2991,2985,2980,2943,2912,2892,2866,2834,2822,2782,2768,2753,2713,2687,2655,2628,2619,2594,2580,2558,2540,2533,2510,2502,2493,2489,2479,2472,2470,2465,2463,2462,2485,2596,2638,2788,2928,2964,3033,3045,3052,3057,3052,3035,3029,2999,2963,2951,2940,2905,2855,2842,2794,2742,2709,2660,2646,2631,2593,2570,2560,2551,2520,2510,2480,2471,2460,2442,2417,2411,2406,2389,2380,2377,2371,2360,2359,2357,2373,2386,2466,2504,2650,2700,2843,2878,2933,2952,2962,2977,2973,2957,2937,2928,2921,2891,2871,2867,2843,2835,2800,2762,2747,2735,2685,2633,2608,2578,2564,2546,2529,2523,2508,2503,2492,2490,2476,2462,2466,2539,2613,2962,3014,3026,2996,2931,2894,2830,2776,2702,2631,2586,2568,2547,2527,2524,2507,2481,2473,2462,2453,2450,2448,2450,2468,2578,2774,2966,3049,3075,3076,3056,3033,3022,3014,2977,2954,2934,2925,2887,2876,2829,2815,2760,2725,2678,2661,2622,2586,2568,2555,2531,2521,2491,2476,2462,2454,2443,2440,2457,2496,2657,2712,2872,3026,3070,3066,3042,3029,3005,2973,2959,2951,2912,2902,2876,2839,2829,2799,2750,2661,2626,2585,2557,2552,2529,2525,2514,2505,2493,2483,2468,2467,2461,2452,2447,2487,2583,2735,2893,2979,3035,3055,3068,3068,3040,3006,2954,2914,2886,2855,2848,2834,2747,2698,2611,2556,2497,2469,2452,2437,2427,2413,2433,2547,2930,3041,3097,3076,3035,2964,2909,2884,2828,2781,2722,2670,2649,2636,2602,2525,2493,2476,2466,2446,2437,2419,2405,2399,2385,2379,2396,2407,2501,2650,2712,2880,3004,3055,3069,3046,3014,2976,2928,2900,2862,2815,2804,2771,2701,2679,2665,2613,2558,2514,2498,2480,2453,2426,2411,2402,2389,2386,2399,2470,2503,2596,2654,2708,2916,3020,3023,2974,2923,2886,2879,2862,2848,2842,2808,2799,2755,2742,2689,2676,2645,2590,2554,2504,2491,2469,2452,2437,2428,2432,2488,2564,2663,2723,2883,2934,2969,3025,3046,3054,3054,3031,2980,2902,2875,2843,2801,2761,2741,2708,2696,2675,2632,2614,2603,2554,2517,2505,2488,2467,2466,2448,2439,2425,2413,2412,2410,2455,2557,2724,2897,2952,3058,3108,3109,3115,3099,3077,3060,2998,2963,2919,2888,2860,2830,2810,2763,2741,2727,2669,2656,2622,2573,2541,2505,2472,2457,2428,2419,2399,2394,2384,2388,2402,2464,2603,2720,2946,2984,3070,3096,3093,3076,3035,2992,2959,2909,2871,2819,2769,2706,2629,2584,2530,2495,2476,2451,2432,2425,2407,2390,2403,2580,2862,3020,3064,3058,3041,3002,2976,2949,2914,2890,2874,2866,2823,2812,2743,2650,2582,2544,2512,2498,2489,2480,2472,2464,2464,2448,2440,2440,2423,2419,2439,2533,2746,2916,3065,3087,3104,3087,3057,2995,2926,2867,2818,2773,2750,2698,2638,2604,2565,2548,2521,2507,2492,2479,2466,2447,2446,2437,2419,2405,2384,2399,2445,2759,2944,3101,3145,3142,3127,3112,3104,3073,3035,2968,2916,2850,2780,2700,2635,2596,2547,2498,2489,2454,2435,2422,2412,2380,2375,2364,2365,2356,2365,2416,2455,2494,2669,2931,2983,3100,3120,3091,3040,2970,2922,2903,2835,2743,2690,2628,2562,2534,2491,2462,2452,2435,2420,2412,2404,2389,2389,2435,2601,2782,2967,3081,3129,3119,3113,3068,3053,2991,2937,2900,2844,2801,2722,2660,2608,2552,2542,2497,2452,2428,2415,2405,2396,2390,2389,2495,2779,2972,3094,3123,3136,3152,3136,3108,3047,3030,3003,2912,2837,2802,2750,2686,2670,2609,2568,2552,2525,2504,2488,2469,2437,2432,2403,2399,2375,2355,2342,2344,2333,2335,2366,2482,2535,2745,3019,3065,3155,3164,3165,3153,3088,2950,2867,2759,2671,2566,2492,2417,2383,2362,2342,2332,2316,2316,2310,2308,2307,2307,2333,2359,2437,2487,2553,2779,2938,3129,3229,3229,3207,3157,3081,3028,2958,2908,2841,2825,2754,2734,2658,2568,2516,2459,2424,2393,2370,2363,2350,2346,2344,2337,2332,2333,2330,2365,2470,2526,2734,2816,3036,3183,3225,3221,3192,3136,3055,3001,2962,2924,2832,2723,2652,2595,2545,2535,2498,2493,2468,2465,2445,2443,2432,2425,2423,2408,2406,2399,2390,2373,2445,2739,2952,3155,3077,2964,2909,2864,2830,2785,2703,2635,2577,2543,2487,2478,2462,2447,2431,2415,2400,2408,2522,2843,2983,3166,3207,3175,3106,3071,2985,2958,2905,2860,2777,2729,2657,2614,2594,2541,2503,2480,2470,2454,2438,2422,2408,2394,2386,2382,2371,2363,2367,2375,2459,2506,2704,2781,3137,3236,3252,3234,14
2682,2639,2579,2522,2485,2451,2435,2409,2393,2381,2371,2351,2342,2340,2337,2336,2335,2333,2332,2330,2326,2325,2322,2326,2358,2429,2534,2595,2663,2800,2865,2921,3028,3040,3037,3025,3008,2967,2925,2874,2862,2846,2844,2850,2848,2842,2810,2755,2691,2630,2575,2544,2516,2499,2495,2492,2487,2483,2481,2486,2519,2675,2843,2990,3047,3059,3045,3026,2978,2953,2927,2903,2863,2844,2831,2815,2810,2817,2818,2814,2800,2773,2756,2738,2650,2570,2523,2490,2484,2478,2468,2466,2463,2467,2494,2520,2553,2595,2699,2759,2945,2999,3045,3124,3064,2984,2957,2910,2890,2873,2837,2822,2814,2797,2774,2743,2726,2661,2639,2595,2573,2553,2518,2473,2453,2437,2426,2421,2415,2403,2399,2409,2529,2580,2780,2985,3042,3085,3139,3150,3149,3143,3088,3022,2983,2946,2930,2891,2879,2872,2851,2840,2804,2787,2768,2723,2673,2616,2588,2563,2512,2449,2406,2374,2371,2362,2356,2353,2352,2353,2349,2344,2350,2358,2406,2447,2493,2554,2837,3023,3068,3122,3098,3076,3011,2984,2922,2886,2842,2817,2806,2802,2786,2773,2766,2719,2706,2669,2647,2631,2596,2566,2535,2534,2530,2528,2532,2530,2526,2512,2489,2492,2495,2533,2569,2607,2832,3004,3073,3102,3067,3041,2995,2976,2910,2866,2831,2824,2806,2792,2750,2725,2651,2617,2519,2479,2445,2378,2332,2289,2281,2267,2254,2243,2275,2308,2348,2459,2743,2933,3046,3098,3099,3083,3033,3016,2991,2946,2928,2907,2854,2815,2794,2777,2696,2538,2439,2333,2315,2257,2225,2213,2214,2227,2244,2278,2434,2582,2749,2904,3070,3118,3123,3126,3093,3081,3028,3014,2981,2961,2948,2927,2896,2885,2868,2835,2820,2795,2753,2690,2627,2556,2539,2515,2462,2414,2405,2354,2334,2329,2351,2416,2462,2526,2819,3091,3075,2998,2929,2844,2790,2768,2738,2708,2675,2615,2531,2450,2417,2343,2275,2261,2214,2208,2191,2173,2177,2173,2182,2189,2188,2188,2189,2201,2376,2717,3001,3220,3229,3222,3198,3129,3049,2970,2930,2896,2890,2871,2821,2740,2662,2581,2534,2495,2456,2420,2409,2400,2391,2388,2384,2387,2383,2375,2372,2363,2365,2362,2373,2458,2654,2904,3190,3268,3260,3199,3022,2927,2906,2902,2894,2879,2861,2822,2752,2640,2557,2540,2481,2448,2434,2432,2410,2413,2405,2401,2392,2394,2409,2438,2521,2574,2647,2806,3181,3251,3173,3070,3044,2966,2952,2923,2906,2902,2876,2873,2835,2785,2702,2647,2589,2517,2489,2451,2438,2394,2389,2366,2358,2361,2356,2350,2351,2345,2349,2343,2329,2323,2338,2462,2523,2605,2871,3145,3210,3330,3334,3337,3271,3246,3143,3117,3082,3032,2988,2947,2929,2902,2861,2851,2827,2764,2677,2653,2564,2511,2493,2432,2379,2358,2350,2351,2342,2345,2340,2332,2327,2318,2313,2303,2305,2290,2286,2279,2319,2360,2469,2538,2628,2821,3023,3257,3341,3359,3354,3264,3233,3115,3088,3003,2989,2945,2943,2921,2920,2888,2880,2818,2799,2712,2687,2596,2544,2482,2459,2422,2402,2381,2377,2370,2372,2365,2360,2356,2350,2336,2338,2356,2374,2411,2580,2662,2839,3018,3094,3258,3277,3262,3154,3115,2986,2954,2879,2870,2860,2867,2878,2884,2882,2881,2842,2798,2776,2746,2626,2567,2516,2461,2442,2412,2402,2396,2396,2392,2397,2397,2393,2397,2408,2450,2590,2733,2901,2988,3193,3240,3283,3280,3270,3177,3012,2886,2846,2834,2839,2821,2803,2742,2652,2625,2590,2534,2509,2480,2421,2392,2360,2351,2348,2353,2351,2358,2355,2356,2358,2362,2434,2478,2688,2773,3053,3209,3264,3347,3302,3274,3159,3124,3018,2993,2929,2917,2882,2867,2849,2839,2822,2763,2680,2653,2619,2533,2502,2434,2412,2367,2351,2330,2321,2310,2311,2308,2310,2305,2303,2297,2286,2280,2284,2301,2419,2488,2658,2755,2862,3165,3367,3397,3415,3384,3358,3249,3214,3112,3087,3015,2998,2951,2926,2882,2818,2795,2704,2641,2547,2516,2490,2440,2418,2369,2335,2324,2311,2308,2306,2301,2298,2295,2284,2280,2268,2260,2253,2252,2251,2253,2266,2345,2545,2636,2959,3268,3346,3476,3486,3463,3365,3244,3207,3172,3087,3029,3015,2978,2954,2901,2879,2797,2700,2668,2574,2546,2454,2437,2388,2379,2364,2354,2350,2339,2336,2326,2323,2308,2306,2301,2291,2289,2293,2307,2419,2475,2546,2818,2923,3226,3434,3468,3480,3455,3344,3296,3252,3129,3097,3032,3021,3009,3009,3003,2999,2955,2908,2816,2781,2712,2585,2517,2455,2457,2537,2572,2568,2574,2592,2658,2707,2771,3186,3396,3476,3435,3307,3155,3013,2941,2892,2877,2854,2851,2834,2812,2800,2740,2721,2697,2655,2636,2577,2544,2516,2507,2495,2474,2459,2453,2440,2429,2644,2968,3226,3271,3236,3169,3132,3000,2964,2863,2816,2786,2764,2742,2698,2681,2594,2562,2449,2376,2281,2249,2201,2147,2109,2107,2099,2121,2129,2171,2225,2302,2461,2717,2988,3071,3134,3222,3248,3163,3034,2784,2740,2732,2765,2808,2868,2878,2878,2856,2797,2765,2638,2601,2557,2485,2458,2425,2350,2321,2257,2234,2200,2189,2195,2207,2228,2253,2255,2316,2348,2530,2604,2875,2957,3157,3188,3211,3187,3164,2978,2879,2846,2778,2725,2718,2688,2685,2648,2579,2473,2397,2379,2371,2345,2368,2394,2402,2440,2539,2598,2810,2895,3179,3274,3285,3240,3218,3120,3092,2981,2920,2910,2869,2862,2835,2797,2769,2692,2570,2538,2488,2471,2410,2380,2355,2348,2316,2301,2291,2292,2356,2517,2726,2803,2969,3020,3009,2915,2767,2674,2642,2578,2555,2522,2508,2481,2452,2393,2298,2246,2195,2151,2063,2054,2068,2066,2083,2081,2092,2118,2139,2296,2364,2454,2735,3006,3065,3121,3175,3115,3008,2958,2900,2842,2834,2791,2787,2766,2722,2670,2592,2572,2487,2424,2371,2342,2348,2344,2357,2358,2383,2471,2667,2743,3013,3090,3315,3285,3171,3144,3051,2987,2919,2878,2835,2794,2724,2704,2619,2598,2567,2499,2439,2408,2382,2377,2370,2370,2366,2395,2465,2523,2582,2826,2910,3151,3202,3280,3230,3173,3112,3008,2941,2896,2847,2807,2796,2738,2720,2640,2617,2535,2515,2447,2434,2389,2370,2358,2349,2345,2349,2339,2336,2334,2403,2574,2740,3021,3098,3225,3267,3290,3229,3128,3101,3013,2956,2898,2865,2838,2787,2724,2673,2617,2527,2490,2483,2479,2434,2411,2370,2222,2036,1982,1922,1825,1752,1764,1820,1890,2084,2168,2499,2759,3151,3454,3515,3614,3524,3395,3307,3288,3227,3217,3178,3171,3128,3072,2985,2880,2837,2709,2522,2473,2379,2337,2205,2087,1979,1896,1993,2149,2345,2703,2964,3122,3086,2981,2809,2705,2629,2615,2617,2621,2611,2607,2565,2549,2484,2424,2372,2345,2369,2376,2402,2456,2502,2519,2534,2701,2905,3187,3517,3600,3622,3611,3525,3482,3441,3352,3195,3164,3076,3065,3045,3022,2989,2913,2883,2778,2742,2599,2504,2451,2394,2376,2352,2325,2316,2306,2310,2327,2440,2659,2746,2935,3024,3223,3261,3282,3267,3241,3136,3060,2959,2935,2882,2875,2866,2870,2869,2850,2835,2773,2746,2719,2631,2576,2525,2504,2442,2411,2374,2363,2339,2317,2306,2328,2514,2588,2860,3117,3256,3173,2976,2941,2860,2810,2798,2789,2781,2768,2736,2653,2538,2480,2355,2321,2279,2268,2272,2275,2274,2282,2296,2321,2475,2554,2740,2844,3149,3233,3301,3383,3398,3401,3368,3306,3188,3150,3046,2962,2884,2842,2816,2767,2728,2626,2596,2542,2516,2442,2422,2369,2358,2347,2321,2309,2298,2341,2654,3302,3374,3243,3142,3059,2999,2972,2961,2956,2922,2826,2647,2586,2539,2498,2469,2458,2435,2424,2417,2393,2366,2351,2326,2413,2543,3050,3322,3433,3374,3118,2955,2914,2872,2795,2775,2765,2713,2633,2500,2437,2351,2296,2276,2290,2329,2360,2391,2397,2394,2393,2436,2476,2583,3132,3248,3115,2844,2803,2813,2806,2720,2571,2410,2243,2276,2331,2461,2764,3123,3307,3066,2898,2761,2694,2673,2681,2697,2706,2689,2616,2533,2411,2332,2241,2211,2236,2301,2599,2924,3228,3392,3204,3032,2888,2746,2688,2660,2648,2626,2574,2531,2515,2441,2423,2353,2339,2287,2281,2264,2254,2254,2242,2246,2245,2258,2359,2413,2667,2763,3072,3152,3315,3153,3015,2884,2789,2712,2656,2628,2581,2527,2480,2406,2388,2326,2291,2275,2270,2257,2240,2240,2245,2293,2445,2670,2837,2978,3036,3093,3000,2891,2783,2759,2708,2628,2597,2567,2421,2136,2068,2051,2093,2145,2230,2551,2826,3220,3178,3086,2975,2892,2816,2785,2767,2733,2657,2584,2479,2412,2403,2367,2359,2360,2356,2357,2410,2631,2794,3044,3203,3242,3202,3168,3138,3018,2945,2866,2809,2782,2779,2761,2726,2684,2603,2582,2529,2498,2438,2415,2383,2368,2356,2347,2336,2321,2329,2386,2550,2617,2703,2952,3146,3202,3026,2897,2774,2694,2626,2605,2599,2550,2482,2449,2369,2339,2276,2253,2220,2206,2199,2217,2261,2277,2364,2474,2725,3117,3319,3360,3376,3270,3168,3079,3042,3047,3065,3140,3206,3272,3273,3241,2654,2905,3610,4048,3680,2975,2271,1801,1584,1482,1482,1481,1481,1482,1481,1481,1481,1481,1481,1481,1482,1525,2223,3163,3824,4066,4066,4067,4066,4066,4066,4059,3823,3190,2485,1825,1664,1482,1482,1482,1482,1482,1481,1482,1482,1481,1481,1511,1627,1753,2022,2583,3133,3298,3735,3848,3943,4053,4066,4065,4066,4066,4066,4066,4067,4067,4066,4066,4066,4066,4066,4066,4058,3923,3792,3597,3472,3363,3303,3264,3277,3317,3521,3838,4055,4066,4067,3954,3588,3298,2960,2742,2600,2385,2239,2097,1908,1856,1654,1631,1649,1678,1702,1703,1704,1716,1746,2064,2259,2908,3123,3722,3873,4060,4025,3905,3733,3669,3602,3445,3406,3452,3646,3771,3788,3680,3256,2961,2771,2503,2144,1791,1605,1560,1523,1484,1481,1481,1481,1482,1481,1482,1481,1482,1482,1482,1482,1482,1482,1482,1482,1504,1573,1711,1862,2104,2286,2342,2483,2597,2685,2799,3148,3478,3947,3976,3797,3695,3723,3888,4046,4064,4049,4034,3955,3776,3641,3573,3514,3500,3457,3436,3383,3348,3308,3162,2932,2713,2594,2532,2582,2796,2963,3179,3307,3538,3820,4049,4067,4068,4067,4067,4066,4065,4060,4002,3894,3715,3644,3404,3082,2866,2627,2481,2362,2255,2206,2223,2258,2481,2794,3079,3191,3190,3074,2809,2673,2488,2336,2245,2214,2204,2214,2209,2207,2140,1897,1802,26
2711,2641,2617,2593,2530,2480,2466,2453,2423,2407,2392,2382,2377,2374,2368,2352,2341,2333,2323,2307,2304,2299,2307,2344,2472,2692,2871,3047,3125,3301,3332,3353,3339,3218,3180,3059,3023,2956,2925,2901,2841,2829,2802,2787,2770,2758,2708,2689,2643,2619,2596,2499,2477,2423,2382,2374,2364,2347,2339,2328,2320,2307,2303,2299,2295,2295,2294,2291,2285,2300,2314,2339,2474,2542,2707,2799,2896,3246,3396,3420,3416,3340,3235,3127,3034,3008,2945,2930,2917,2862,2822,2738,2689,2665,2642,2573,2517,2501,2487,2451,2432,2413,2398,2393,2388,2364,2342,2336,2321,2297,2289,2281,2261,2243,2237,2227,2247,2302,2345,2543,2628,2914,3008,3240,3294,3377,3371,3327,3295,3182,3142,3105,2970,2866,2848,2821,2782,2699,2627,2561,2523,2504,2475,2464,2450,2425,2406,2402,2397,2390,2386,2380,2375,2365,2358,2347,2343,2335,2323,2326,2384,2537,2607,2688,3127,3311,3373,3336,3303,3269,3143,3022,2983,2952,2856,2840,2816,2810,2799,2795,2764,2715,2643,2619,2568,2494,2474,2452,2405,2371,2366,2351,2347,2345,2343,2343,2341,2340,2338,2329,2323,2317,2315,2317,2377,2414,2466,2683,2872,3070,3165,3383,3431,3483,3487,3482,3408,3335,3254,3175,3102,3013,2986,2966,2915,2905,2891,2861,2847,2798,2774,2704,2619,2514,2453,2403,2372,2362,2359,2341,2333,2328,2328,2319,2315,2312,2303,2297,2297,2292,2292,2294,2353,2398,2588,2676,2963,3236,3363,3402,3445,3380,3347,3304,3178,3096,2988,2901,2874,2864,2853,2843,2813,2779,2709,2634,2605,2538,2514,2466,2449,2422,2412,2400,2394,2385,2388,2384,2378,2379,2363,2362,2350,2342,2341,2346,2367,2473,2536,2763,2857,2944,3189,3351,3353,3306,3189,3150,3102,2984,2884,2864,2839,2804,2782,2772,2769,2751,2734,2721,2656,2584,2554,2532,2441,2386,2377,2344,2341,2331,2324,2324,2321,2314,2315,2309,2312,2304,2307,2296,2291,2278,2299,2389,2448,2512,2778,3074,3171,3250,3440,3441,3417,3323,3282,3167,3125,3025,2991,2920,2898,2861,2846,2813,2794,2741,2715,2641,2609,2586,2503,2438,2400,2371,2335,2317,2314,2304,2307,2297,2295,2284,2280,2275,2269,2273,2290,2309,2447,2681,2987,3179,3423,3441,3432,3332,3210,3083,3050,2953,2932,2891,2873,2866,2835,2814,2799,2790,2730,2682,2608,2526,2463,2409,2359,2355,2343,2341,2327,2321,2311,2315,2318,2404,2447,2581,2667,2751,3043,3273,3328,3360,3385,3361,3338,3212,3078,3030,2995,2889,2867,2827,2809,2804,2783,2775,2754,2698,2630,2574,2518,2488,2468,2440,2385,2341,2338,2326,2319,2313,2312,2318,2314,2322,2323,2323,2330,2323,2318,2313,2306,2313,2387,2561,2650,2951,3063,3346,3421,3533,3535,3457,3325,3286,3239,3125,3023,2999,2972,2901,2869,2853,2815,2749,2728,2698,2564,2485,2433,2414,2384,2360,2354,2345,2333,2327,2320,2314,2307,2304,2292,2288,2285,2294,2345,2388,2504,2765,3097,3385,3509,3566,3540,3503,3467,3324,3280,3229,3107,3066,2976,2947,2897,2875,2841,2783,2718,2686,2629,2602,2569,2545,2444,2384,2374,2341,2329,2323,2325,2315,2315,2308,2310,2301,2304,2293,2294,2281,2281,2278,2276,2287,2297,2404,2457,2613,2710,2808,3133,3387,3447,3482,3507,3481,3370,3218,3080,2944,2883,2867,2859,2851,2839,2801,2757,2646,2553,2530,2453,2404,2367,2353,2346,2342,2341,2343,2338,2340,2324,2310,2288,2286,2312,2441,2679,2786,2891,3217,3387,3518,3512,3400,3205,3073,2964,2873,2843,2815,2762,2698,2584,2496,2472,2400,2385,2339,2331,2306,2299,2294,2289,2286,2277,2278,2274,2272,2269,2261,2257,2251,2250,2252,2317,2357,2574,2780,3018,3250,3518,3635,3635,3563,3472,3315,3176,3097,3004,2983,2948,2932,2922,2889,2879,2850,2829,2810,2727,2698,2597,2565,2472,2400,2344,2314,2306,2295,2293,2288,2283,2285,2281,2263,2250,2393,2731,3182,3441,3558,3523,3491,3402,3349,3194,3144,3100,3022,2987,2960,2933,2885,2878,2873,2853,2799,2776,2689,2659,2564,2537,2461,2442,2423,2386,2361,2352,2351,2344,2330,2313,2305,2287,2284,2296,2396,2612,2710,3036,3331,3403,3459,3518,3508,3448,3405,3359,3202,3151,3013,2977,2888,2841,2819,2802,2789,2694,2574,2483,2385,2367,2323,2301,2295,2289,2286,2285,2283,2283,2280,2271,2259,2249,2300,2459,2542,2637,2984,3332,3508,3635,3603,3570,3527,3379,3277,3142,3007,2940,2924,2887,2875,2831,2789,2709,2677,2578,2482,2453,2379,2359,2326,2295,2281,2278,2274,2272,2272,2271,2270,2265,2263,2259,2256,2246,2243,2230,2225,2223,2253,2462,2763,2883,3127,3346,3505,3556,3590,3583,3469,3419,3370,3215,3170,3049,3018,2941,2913,2880,2849,2834,2792,2678,2580,2490,2419,2400,2360,2336,2333,2329,2320,2318,2314,2307,2302,2298,2280,2259,2248,2269,2457,2541,2743,2974,3199,3297,3498,3531,3438,3389,3229,3074,3030,2953,2868,2824,2797,2766,2752,2733,2629,2501,2472,2415,2346,2315,2285,2267,2263,2259,2257,2255,2253,2247,2241,2229,2225,2216,2256,2340,2579,2937,3311,3581,3629,3665,3567,3520,3362,3218,3095,3004,2939,2925,2910,2874,2823,2803,2777,2690,2654,2621,2514,2422,2394,2373,2302,2271,2269,2252,2252,2240,2233,2221,2217,2212,2206,2205,2191,2176,2157,2168,2327,2602,2725,3117,3245,3533,3629,3630,3505,3396,3238,3099,2999,2930,2898,2887,2863,2846,2790,2734,2631,2600,2496,2417,2392,2376,2333,2313,2313,2308,2310,2301,2293,2272,2253,2243,2218,2337,2678,3269,3558,3264,3005,2886,2849,2821,2731,2557,2427,2336,2286,2275,2271,2273,2267,2269,2260,2261,2256,2248,2249,2257,2361,2595,2827,3229,3352,3648,3704,3758,3734,3704,3554,3389,3331,3284,3142,3002,2978,2909,2895,2843,2827,2754,2664,2626,2593,2478,2445,2407,2323,2296,2245,2229,2212,2202,2201,2197,2203,2203,2206,2203,2205,2200,2196,2188,2179,2171,2171,2176,2199,2331,2413,2616,2734,3140,3265,3386,3626,3682,3657,3628,3469,3414,3230,3181,3083,3038,3005,2917,2904,2870,2869,2846,2840,2782,2659,2551,2441,2362,2334,2292,2267,2261,2267,2268,2274,2269,2269,2262,2251,2236,2224,2217,2226,2299,2735,3119,3540,3606,3654,3449,3206,2934,2813,2726,2435,2284,2249,2252,2250,2225,2754,3747,3685,3292,2992,2896,2794,2650,2489,2386,2297,2245,2229,2211,2204,2207,2202,2202,2181,2153,2124,2105,2103,2111,2183,2227,2573,2966,3095,3440,3611,3568,3422,3247,3109,3067,3040,2969,2948,2942,2946,2940,2918,2852,2762,2616,2511,2417,2372,2362,2368,2371,2370,2335,2306,2275,2338,2460,2770,3157,3648,3704,3568,3348,3155,3053,3001,2976,2939,2916,2865,2791,2722,2597,2480,2438,2408,2317,2264,2246,2240,2216,2208,2199,2132,2104,2075,2060,2037,2026,2013,2017,2055,2099,2150,2422,2537,2941,3289,3487,3497,3396,3345,3300,3071,2862,2793,2765,2595,2493,2386,2302,2208,2193,2194,2194,2196,2195,2178,2165,2141,2150,2165,2305,2689,3058,3368,3515,3501,3464,3422,3263,3055,2970,2880,2828,2822,2809,2789,2762,2668,2578,2455,2404,2360,2310,2279,2278,2285,2290,2295,2295,2292,2278,2277,2287,2391,2451,2531,2837,3196,3301,3400,3582,3608,3575,3543,3398,3348,3192,3067,3030,3002,2950,2930,2917,2888,2875,2853,2799,2693,2601,2486,2414,2366,2331,2314,2302,2292,2293,2289,2290,2287,2289,2283,2271,2262,2274,2374,2597,2933,3280,3525,3595,3585,3371,3029,2892,2849,2819,2769,2694,2662,2632,2568,2475,2425,2351,2307,2308,2311,2311,2304,2293,2276,2272,2267,2345,2539,2848,3192,3557,3468,3313,3145,3008,2914,2868,2860,2825,2758,2598,2502,2385,2318,2305,2303,2299,2284,2288,2411,2655,2985,3475,3337,3073,2910,2833,2819,2795,2789,2786,2781,2761,2729,2682,2567,2480,2352,2309,2302,2302,2307,2306,2285,2277,2321,2563,3006,3507,3596,3441,3211,2920,2834,2812,2643,2361,2271,2248,2238,2238,2238,2243,2241,2241,2237,2235,2234,2219,2206,2206,2237,2372,2446,2535,2865,2987,3104,3316,3401,3536,3543,3530,3369,3200,3143,3043,2960,2877,2859,2840,2843,2834,2791,2742,2711,2617,2583,2495,2445,2386,2353,2344,2333,2330,2334,2333,2337,2337,2336,2332,2326,2324,2303,2300,2300,2318,2381,2503,2779,2893,3218,3313,3447,3484,3507,3462,3319,3143,2988,2942,2847,2794,2785,2787,2774,2767,2751,2689,2659,2632,2536,2423,2378,2333,2305,2302,2296,2294,2294,2297,2298,2297,2294,2290,2280,2345,2528,3085,3316,3555,3599,3622,3486,3318,3162,3114,3001,2969,2903,2886,2856,2828,2790,2692,2594,2498,2464,2438,2365,2321,2308,2303,2289,2294,2293,2298,2302,2302,2303,2297,2291,2277,2303,2469,2738,3097,3213,3611,3499,3278,3051,2973,2930,2921,2895,2842,2752,2652,2615,2585,2523,2473,2447,2403,2377,2377,2372,2376,2377,2381,2378,2378,2333,2310,2304,2504,2782,3513,3463,3301,3138,3040,2921,2896,2831,2824,2800,2800,2775,2749,2655,2567,2470,2369,2307,2287,2274,2278,2273,2278,2274,2273,2270,2268,2258,2290,2482,3162,3491,3683,3624,3464,3410,3296,3105,3000,2935,2916,2874,2845,2827,2786,2673,2539,2452,2376,2330,2315,2297,2281,2283,2276,2266,2264,2256,2245,2251,2275,2392,2654,2764,2893,3156,3584,3704,3599,3431,3252,3203,3152,3038,2961,2948,2932,2918,2897,2891,2874,2838,2760,2624,2496,2421,2382,2369,2367,2359,2354,2362,2360,2367,2370,2369,2376,2371,2374,2364,2340,2324,2306,2315,2321,2378,2655,2999,3343,3581,3614,3629,3612,3469,3411,3342,3093,2956,2915,2850,2833,2826,2819,2782,2685,2592,2489,2409,2380,2342,2311,2304,2275,2269,2266,2258,2259,2252,2238,2222,2297,2609,3125,3577,3716,3442,3269,3118,2959,2895,2807,2677,2568,2471,2410,2335,2296,2281,2278,2270,2264,2267,2262,2267,2266,2260,2264,2253,2240,2234,2229,2215,2216,2209,2209,2238,2275,2462,2800,3208,3561,3638,3746,3733,3622,3561,3258,3004,2933,2888,2839,2702,2601,2493,2384,2334,2302,2301,2290,2291,2297,2295,2290,2285,2271,2265,2257,2244,2243,2299,2560,2910,3432,3622,3735,3621,3421,3222,3159,3108,2979,2954,2898,2894,2885,2889,2871,2826,2736,2592,2488,2396,2352,2311,2298,2286,2280,2283,16
2722,2693,2660,2612,2602,2557,2549,2526,2513,2508,2468,2464,2457,2456,2458,2453,2447,2445,2446,2517,2653,2716,2774,2960,3070,3090,3093,3075,3052,2987,2956,2884,2856,2807,2791,2790,2792,2836,2870,2908,2921,2921,2901,2883,2840,2820,2809,2761,2751,2703,2693,2647,2638,2613,2598,2592,2562,2546,2529,2526,2496,2488,2469,2425,2497,2536,2717,2903,2951,2975,2890,2794,2739,2608,2539,2544,2559,2792,2934,3081,3504,3639,3971,4037,4065,3960,3872,3639,3180,2671,2529,2241,2199,2170,2199,2305,2342,2448,2460,2435,2390,2312,1935,1658,1582,1508,1647,1723,1806,2348,2643,2927,2985,3129,3282,3328,3535,3648,3746,3825,3757,3551,3320,3142,3079,3067,3076,3090,3064,3012,2864,2757,2735,2671,2657,2633,2537,2484,2473,2493,2581,2619,2645,2677,2609,2518,2333,2263,2199,1927,1732,1681,1560,1502,1489,1484,1481,1481,1481,1481,1481,1481,1481,1481,1481,1481,1481,1482,1481,1481,1481,1481,1536,1596,1668,1956,2294,2417,2522,2755,2851,2867,2868,2845,2822,2760,2740,2756,2776,2822,2896,2969,3032,3070,3089,3140,3165,3252,3291,3301,3301,3297,3303,3325,3357,3364,3396,3500,3536,3659,3714,3738,3696,3653,3602,3591,3574,3544,3532,3541,3561,3570,3567,3531,3506,3482,3349,3219,3149,3114,3102,3098,3080,3069,3055,3046,3028,3003,2962,2897,2866,2886,2978,3125,3167,3247,3249,3200,3086,2965,2852,2780,2762,2748,2750,2789,2805,2860,2871,2883,2874,2863,2799,2777,2704,2661,2610,2564,2525,2526,2538,2548,2562,2566,2547,2518,2456,2382,2253,2203,2239,2341,2475,2478,2364,2291,2218,2183,2156,2078,2063,2082,2118,2222,2251,2312,2331,2357,2365,2364,2356,2340,2325,2319,2314,2338,2400,2465,2578,2731,2999,3165,3237,3244,3212,3195,3120,3040,3011,2951,2916,2920,2952,2960,2931,2919,2861,2843,2775,2757,2676,2612,2557,2549,2576,2675,2838,3040,3100,3280,3228,3145,3050,2964,2939,2919,2878,2869,2869,2871,2875,2837,2762,2739,2668,2596,2575,2553,2496,2451,2440,2430,2409,2396,2391,2388,2383,2381,2379,2368,2365,2421,2564,2630,2856,3066,3118,3212,3223,3210,3194,3128,3076,2994,2913,2900,2874,2870,2858,2851,2821,2771,2752,2731,2639,2572,2550,2492,2476,2461,2426,2396,2393,2389,2387,2387,2385,2378,2367,2361,2382,2478,2582,2774,2943,2984,3037,3009,2986,2961,2829,2722,2690,2605,2583,2563,2522,2489,2475,2456,2371,2333,2245,2198,2151,2020,1935,1918,1907,1913,1973,2034,2057,2131,2157,2232,2255,2317,2367,2487,2668,2812,3021,3155,3178,3191,3163,3090,3034,2948,2884,2870,2856,2861,2877,2887,2898,2927,2923,2916,2884,2859,2810,2794,2761,2709,2684,2640,2599,2486,2427,2360,2342,2329,2392,2435,2486,2775,3019,3085,3230,3280,3272,3226,3149,3123,3072,3011,2999,2979,2982,2992,2997,2987,2955,2918,2843,2767,2741,2718,2652,2612,2601,2599,2586,2587,2581,2582,2567,2564,2543,2528,2490,2456,2416,2411,2429,2458,2493,2663,2946,3004,3128,3145,3137,3118,3015,2905,2808,2780,2761,2706,2649,2630,2562,2498,2473,2454,2393,2378,2346,2329,2319,2282,2275,2268,2267,2271,2279,2282,2279,2277,2269,2271,2267,2270,2289,2313,2340,2481,2538,2606,2807,2962,2988,3008,3004,2991,2950,2922,2899,2824,2766,2718,2729,2745,2759,2748,2737,2714,2703,2658,2618,2575,2546,2520,2517,2509,2512,2511,2526,2562,2567,2572,2626,2742,2787,2929,2963,2995,3022,2967,2945,2859,2834,2754,2734,2677,2670,2676,2695,2712,2710,2711,2687,2678,2662,2608,2574,2559,2533,2507,2503,2493,2487,2485,2491,2489,2506,2519,2528,2525,2528,2522,2550,2568,2601,2726,2895,2945,2996,3082,3086,3068,3052,2970,2946,2865,2825,2798,2795,2814,2824,2819,2790,2785,2754,2749,2718,2716,2701,2708,2709,2779,2860,2926,2885,2811,2777,2766,2762,2758,2761,2786,2853,2889,3002,3109,3137,3105,3083,3022,2983,2953,2843,2797,2795,2817,2840,2857,2918,2955,2963,2957,2922,2884,2885,2885,2934,2955,3054,3087,3226,3278,3340,3615,3819,3872,3910,3799,3577,3367,3241,3490,3896,4066,4066,4066,4066,4066,4063,3880,3747,3365,3130,2425,1671,1570,1481,1480,1480,1480,1480,1480,1481,1481,1481,1481,1481,1481,1481,1481,1480,1481,1481,1481,1481,1481,1481,1481,1481,1482,1481,1481,1481,1481,1499,1522,1551,1699,1912,2000,2085,2352,2514,2661,2722,2922,2961,3078,3185,3235,3431,3520,3531,3454,3220,3094,2952,2259,1826,1715,1500,1481,1481,1480,1481,1481,1482,1514,1648,1698,1903,1975,2219,2298,2566,3000,3092,3277,3649,3726,3929,4066,4066,4066,4066,4066,4066,4066,4065,4066,4066,4066,4066,4067,4067,4067,4067,4067,4066,4067,4067,4066,4066,4028,3952,3464,2760,2525,1858,1511,1480,1481,1481,1481,1481,1482,1482,1481,1481,1481,1481,1481,1481,1481,1481,1481,1481,1481,1481,1481,1480,1480,1481,1481,1481,1482,1482,1482,1482,1481,1481,1481,1481,1481,1481,1481,1483,1488,1554,1630,1718,1892,1944,1915,1892,1902,2008,2096,2260,2378,2629,2793,3058,3095,3132,3137,3144,3122,3066,2947,2874,2869,2876,2896,2972,3079,3114,3161,3311,3490,3549,3614,3801,3944,4004,4055,4066,4066,4067,4067,4067,4066,4066,4066,4065,4066,4066,4066,4066,4066,4066,4066,4066,4067,4052,3881,3761,3180,2709,2048,1481,1481,1481,1481,1481,1481,1481,1481,1481,1481,1505,1522,1609,1731,1781,1826,1986,2146,2210,2240,2271,2311,2360,2437,2551,2778,2981,3148,3245,3232,3219,3176,3119,3050,3024,3016,3027,3029,3028,3022,3004,2976,2959,2936,2908,2875,2807,2741,2675,2635,2588,2561,2554,2551,2541,2577,2604,2640,2779,3000,3047,3133,3150,3143,3133,3087,3050,2997,2943,2931,2915,2916,2919,2921,2927,2919,2913,2905,2875,2810,2773,2729,2702,2678,2668,2660,2653,2647,2642,2639,2638,2649,2727,2821,2997,3211,3241,3274,3233,3211,3123,3032,2949,2876,2858,2859,2870,2875,2872,2851,2812,2749,2697,2647,2605,2590,2577,2546,2537,2520,2516,2507,2504,2505,2505,2502,2645,2806,2868,3033,3075,3140,3146,3118,3056,2930,2864,2816,2820,2858,2882,2885,2884,2877,2869,2859,2842,2810,2784,2747,2704,2659,2610,2517,2432,2373,2345,2306,2334,2610,2785,2894,2920,2834,2693,2615,2565,2586,2600,2642,2673,2675,2675,2655,2637,2609,2576,2569,2558,2537,2529,2525,2514,2508,2508,2509,2510,2502,2578,2721,2922,2988,3056,3203,3267,3265,3195,3169,3086,3002,2926,2907,2914,2916,2900,2873,2815,2744,2695,2618,2553,2532,2484,2468,2437,2413,2405,2399,2394,2388,2387,2380,2366,2363,2393,2505,2624,2918,3144,3212,3140,3065,2981,2915,2878,2938,2991,3012,3008,2966,2905,2834,2746,2733,2725,2740,2750,2807,2872,2900,2921,2986,3022,3026,3039,3045,3047,3091,3107,3172,3184,3193,3175,3087,2903,2694,2545,2407,2376,2393,2438,2458,2458,2454,2405,2386,2305,2281,2230,2203,2184,2135,2128,2134,2146,2154,2123,2061,2031,1903,1853,1846,1874,1905,2006,2270,2619,2701,2881,2957,2823,2616,2536,2539,2541,2535,2525,2493,2439,2426,2408,2380,2378,2387,2394,2432,2489,2499,2481,2498,2616,2721,2842,2994,3072,3072,2980,2852,2726,2621,2567,2584,2616,2626,2626,2617,2601,2611,2635,2671,2740,2777,2808,2810,2829,2857,3015,3243,3504,3773,3813,3511,3285,3092,2972,2948,2946,2946,2948,2922,2882,2799,2714,2679,2603,2517,2495,2455,2438,2409,2389,2362,2351,2337,2331,2366,2460,2626,2683,2748,2896,2968,2951,2890,2806,2783,2704,2632,2627,2612,2619,2631,2640,2644,2647,2639,2593,2501,2460,2363,2325,2284,2267,2238,2215,2202,2179,2166,2161,2136,2124,2116,2116,2117,2208,2252,2412,2477,2598,2648,2699,2803,2805,2796,2755,2744,2725,2686,2653,2652,2646,2662,2691,2707,2717,2749,2754,2755,2746,2704,2695,2648,2614,2600,2578,2560,2547,2544,2558,2618,2688,2814,2902,2920,2906,2891,2807,2721,2634,2598,2605,2643,2681,2703,2728,2721,2720,2708,2684,2648,2641,2627,2598,2592,2592,2592,2596,2606,2660,2785,2833,2892,3051,3165,3180,3194,3176,3105,3089,3029,2995,2957,2918,2907,2897,2889,2878,2854,2808,2755,2731,2673,2648,2595,2545,2497,2480,2452,2438,2427,2414,2405,2393,2385,2378,2366,2362,2409,2570,2622,2843,2969,2950,2843,2775,2760,2762,2747,2691,2636,2599,2583,2553,2541,2535,2514,2499,2500,2492,2485,2487,2480,2481,2481,2478,2480,2478,2474,2502,2529,2558,2680,2807,2844,2867,2891,2842,2821,2794,2727,2668,2657,2643,2622,2617,2627,2632,2663,2672,2705,2711,2723,2721,2712,2702,2675,2663,2631,2599,2581,2573,2576,2592,2616,2623,2626,2646,2667,2765,2811,2856,3007,3113,3134,3141,3127,3048,2963,2879,2864,2869,2872,2881,2880,2881,2862,2815,2803,2758,2718,2703,2694,2660,2639,2632,2631,2620,2622,2619,2618,2614,2603,2591,2574,2563,2559,2554,2567,2608,2641,2677,2881,3034,3111,3110,3054,2986,2961,2867,2821,2809,2804,2770,2729,2674,2636,2591,2560,2537,2533,2533,2532,2536,2537,2539,2540,2540,2540,2538,2537,2563,2654,2697,2860,2917,2974,3132,3146,3024,2915,2848,2862,2872,2822,2712,2641,2592,2568,2544,2538,2515,2509,2493,2477,2469,2463,2512,2624,2776,2830,2965,3028,2951,2802,2714,2636,2626,2616,2620,2620,2618,2585,2541,2456,2348,2328,2294,2291,2312,2343,2382,2407,2418,2428,2443,2457,2549,2710,2777,2846,3039,3174,3180,3123,2908,2832,2787,2776,2799,2857,2900,2942,2964,2947,2897,2842,2734,2694,2580,2543,2448,2422,2367,2342,2302,2290,2283,2279,2314,2382,2484,2600,2713,2763,2802,2854,2802,2773,2739,2672,2579,2501,2436,2424,2427,2457,2517,2546,2561,2559,2549,2549,2539,2531,2546,2578,2621,2667,2696,2774,2913,2965,3136,3290,3304,3305,3269,3258,3244,3226,3221,3223,3240,3258,3265,3269,3254,3236,3129,2948,2852,2847,2873,2897,2810,2570,2215,1900,1743,1734,1785,1849,1922,1933,1905,1883,1870,1899,1998,2168,2252,2303,2367,2383,2421,2457,2465,2477,2505,2538,2547,2560,2585,2673,2899,3105,3346,3382,3424,3434,3402,3358,3279,3198,3116,3089,3093,3117,3108,3054,3019,2980,2822,2649,2590,2488,2382,2290,26
2774,2759,2731,2709,2695,2679,2668,2665,2661,2660,2659,2657,2656,2652,2643,2636,2634,2628,2625,2625,2624,2625,2626,2628,2628,2633,2647,2733,2783,2793,2775,2754,2741,2730,2716,2710,2703,2702,2699,2697,2691,2689,2685,2676,2664,2660,2654,2649,2648,2646,2645,2646,2645,2645,2645,2659,2667,2708,2723,2774,2812,2813,2805,2797,2781,2772,2763,2741,2734,2728,2709,2705,2693,2683,2671,2658,2649,2645,2644,2636,2636,2633,2629,2631,2638,2645,2698,2750,2777,2792,2791,2788,2781,2761,2752,2744,2724,2708,2703,2698,2690,2686,2683,2683,2678,2675,2672,2670,2663,2662,2657,2654,2653,2645,2644,2641,2637,2629,2628,2627,2628,2633,2660,2676,2725,2759,2790,2793,2790,2785,2766,2759,2745,2741,2735,2718,2713,2702,2699,2690,2684,2679,2669,2659,2656,2648,2645,2644,2637,2635,2633,2630,2630,2633,2646,2655,2697,2712,2729,2771,2780,2785,2789,2787,2771,2764,2756,2730,2714,2709,2700,2694,2694,2692,2690,2683,2681,2677,2666,2662,2660,2647,2641,2639,2635,2634,2631,2633,2645,2656,2679,2693,2710,2769,2790,2793,2782,2778,2769,2747,2723,2718,2711,2698,2689,2690,2687,2687,2683,2683,2674,2673,2668,2660,2648,2644,2638,2634,2631,2628,2646,2685,2698,2746,2756,2780,2779,2773,2764,2760,2738,2722,2712,2699,2698,2693,2690,2690,2684,2679,2675,2674,2663,2662,2658,2651,2642,2639,2636,2631,2632,2630,2645,2673,2690,2704,2754,2777,2784,2791,2792,2787,2779,2775,2748,2728,2724,2708,2702,2698,2699,2694,2693,2687,2687,2677,2676,2671,2662,2651,2650,2645,2639,2631,2631,2629,2627,2636,2646,2656,2700,2746,2763,2773,2793,2783,2776,2759,2752,2734,2727,2714,2708,2699,2695,2692,2688,2685,2680,2680,2669,2657,2655,2648,2645,2641,2642,2637,2631,2631,2628,2645,2652,2666,2709,2740,2775,2782,2777,2761,2741,2737,2730,2710,2702,2698,2696,2688,2689,2684,2676,2670,2669,2654,2647,2644,2636,2636,2635,2637,2636,2636,2642,2662,2677,2687,2734,2768,2776,2777,2777,2754,2744,2729,2711,2709,2699,2700,2695,2698,2694,2693,2687,2683,2668,2660,2648,2640,2639,2635,2636,2632,2640,2643,2654,2687,2741,2754,2772,2797,2804,2802,2796,2795,2772,2759,2742,2722,2712,2707,2698,2700,2696,2693,2683,2677,2671,2664,2660,2654,2651,2643,2645,2640,2633,2635,2629,2640,2667,2695,2755,2769,2783,2782,2764,2743,2730,2711,2711,2704,2696,2696,2685,2686,2674,2674,2661,2655,2648,2639,2638,2631,2631,2627,2628,2624,2624,2616,2622,2654,2694,2743,2772,2764,2753,2732,2702,2691,2689,2682,2670,2671,2656,2643,2639,2629,2624,2623,2622,2643,2671,2716,2727,2743,2767,2756,2736,2715,2701,2695,2690,2678,2665,2657,2644,2637,2634,2628,2629,2623,2625,2625,2618,2631,2655,2699,2769,2767,2739,2710,2689,2689,2682,2674,2671,2657,2658,2644,2634,2626,2623,2620,2614,2619,2614,2618,2615,2621,2620,2654,2700,2710,2751,2761,2765,2759,2751,2741,2720,2712,2704,2704,2698,2690,2691,2685,2689,2685,2683,2679,2666,2664,2654,2651,2643,2631,2628,2624,2625,2643,2681,2738,2759,2762,2766,2744,2721,2698,2691,2689,2682,2672,2673,2663,2657,2651,2641,2639,2640,2635,2637,2636,2644,2645,2684,2727,2736,2766,2763,2742,2730,2711,2698,2689,2691,2685,2685,2678,2669,2664,2665,2659,2659,2647,2642,2636,2647,2670,2722,2763,2773,2745,2711,2699,2694,2686,2679,2678,2669,2671,2659,2655,2655,2650,2641,2641,2638,2643,2654,2666,2673,2725,2763,2766,2777,2757,2739,2731,2723,2716,2706,2707,2701,2701,2695,2697,2686,2683,2676,2677,2668,2666,2662,2660,2660,2655,2657,2651,2645,2645,2649,2664,2701,2710,2749,2765,2770,2767,2754,2742,2734,2725,2719,2712,2707,2706,2702,2701,2693,2683,2671,2668,2661,2662,2657,2657,2656,2653,2648,2660,2675,2707,2747,2766,2771,2766,2759,2744,2736,2724,2718,2714,2710,2699,2689,2682,2676,2666,2666,2657,2656,2658,2656,2658,2654,2654,2652,2655,2666,2683,2720,2775,2774,2762,2754,2743,2742,2730,2722,2714,2709,2705,2694,2686,2680,2673,2663,2659,2652,2648,2649,2645,2648,2644,2644,2641,2642,2636,2638,2639,2646,2669,2708,2719,2733,2754,2753,2751,2736,2733,2727,2710,2702,2696,2687,2684,2675,2668,2655,2649,2645,2644,2637,2639,2636,2638,2636,2638,2640,2641,2641,2639,2642,2649,2673,2712,2750,2779,2782,2772,2771,2766,2755,2741,2735,2724,2720,2713,2708,2698,2693,2673,2643,2627,2618,2609,2603,2601,2599,2595,2592,2590,2592,2609,2644,2656,2670,2699,2725,2734,2730,2727,2723,2709,2701,2698,2694,2693,2695,2696,2696,2693,2692,2685,2678,2676,2673,2674,2674,2674,2675,2675,2676,2674,2672,2663,2662,2666,2672,2688,2714,2726,2769,2798,2803,2807,2829,2863,2911,2928,2973,2998,3000,2998,2973,2961,2914,2878,2803,2710,2578,2521,2443,2412,2397,2395,2388,2388,2391,2401,2430,2468,2481,2493,2518,2519,2513,2495,2475,2476,2479,2492,2511,2517,2522,2533,2537,2535,2533,2525,2522,2520,2530,2541,2546,2566,2575,2594,2626,2637,2680,2719,2731,2740,2754,2760,2767,2768,2766,2763,2759,2757,2745,2739,2737,2733,2728,2725,2724,2712,2699,2694,2682,2672,2667,2666,2662,2660,2659,2654,2655,2661,2669,2693,2706,2743,2758,2791,2818,2824,2836,2833,2821,2796,2787,2775,2769,2762,2729,2690,2684,2684,2693,2706,2715,2753,2776,2785,2794,2797,2793,2788,2778,2772,2763,2764,2759,2758,2762,2764,2769,2768,2773,2770,2772,2767,2768,2770,2779,2784,2798,2838,2851,2873,2889,2899,2894,2886,2876,2872,2862,2857,2830,2806,2794,2788,2755,2733,2719,2703,2692,2672,2669,2647,2645,2625,2624,2615,2620,2643,2679,2692,2696,2690,2681,2652,2637,2632,2654,2672,2677,2674,2647,2602,2576,2563,2598,2627,2655,2665,2670,2666,2668,2664,2657,2659,2657,2663,2667,2664,2659,2640,2624,2617,2611,2615,2622,2642,2680,2690,2729,2742,2733,2726,2711,2710,2701,2693,2692,2687,2680,2677,2680,2676,2677,2673,2674,2667,2670,2693,2713,2743,2776,2778,2788,2776,2767,2756,2732,2718,2696,2687,2678,2673,2660,2642,2641,2634,2640,2640,2678,2706,2772,2774,2764,2739,2717,2714,2704,2703,2686,2684,2678,2681,2672,2671,2664,2666,2657,2647,2650,2641,2643,2640,2647,2662,2676,2699,2732,2763,2766,2750,2750,2732,2724,2712,2711,2709,2705,2704,2698,2693,2679,2680,2673,2668,2656,2658,2651,2649,2650,2663,2702,2728,2762,2785,2776,2754,2736,2707,2684,2683,2667,2667,2660,2655,2638,2638,2632,2626,2609,2611,2609,2611,2638,2646,2674,2694,2707,2727,2764,2786,2788,2775,2763,2755,2735,2719,2708,2710,2698,2700,2684,2684,2666,2651,2633,2625,2628,2636,2668,2702,2745,2758,2746,2722,2709,2693,2691,2685,2685,2675,2671,2656,2653,2643,2637,2644,2656,2670,2703,2721,2763,2766,2761,2740,2717,2709,2696,2690,2690,2684,2686,2677,2673,2666,2663,2652,2650,2641,2643,2646,2659,2698,2706,2751,2770,2762,2749,2727,2706,2695,2691,2697,2694,2693,2679,2680,2672,2664,2652,2655,2650,2655,2684,2722,2751,2773,2757,2730,2712,2709,2700,2703,2692,2689,2678,2676,2672,2670,2662,2664,2659,2663,2676,2687,2713,2733,2757,2757,2756,2735,2718,2695,2682,2681,2682,2684,2679,2671,2649,2636,2641,2654,2672,2713,2744,2754,2761,2763,2757,2746,2726,2723,2715,2704,2693,2688,2686,2686,2675,2670,2661,2663,2655,2655,2650,2653,2650,2658,2688,2713,2744,2756,2764,2767,2761,2744,2721,2714,2705,2703,2697,2696,2691,2685,2671,2670,2664,2659,2653,2650,2646,2645,2641,2649,2676,2684,2699,2734,2763,2763,2764,2741,2717,2702,2687,2684,2687,2685,2683,2680,2672,2668,2661,2658,2653,2682,2720,2761,2769,2764,2756,2734,2723,2713,2704,2703,2703,2699,2698,2689,2675,2674,2668,2653,2658,2724,2775,2768,2752,2715,2695,2689,2687,2685,2682,2678,2678,2670,2664,2661,2657,2655,2653,2651,2655,2657,2662,2676,2697,2731,2758,2763,2767,2766,2764,2751,2740,2727,2711,2707,2704,2700,2696,2685,2663,2651,2648,2644,2644,2645,2649,2665,2749,2775,2767,2749,2724,2710,2693,2691,2686,2681,2672,2663,2654,2643,2639,2635,2631,2629,2632,2634,2660,2670,2683,2722,2745,2753,2758,2762,2760,2750,2744,2730,2724,2711,2699,2691,2679,2661,2650,2646,2644,2643,2640,2638,2636,2636,2642,2648,2675,2687,2724,2736,2759,2763,2754,2742,2728,2713,2705,2701,2697,2695,2689,2682,2679,2660,2651,2647,2641,2637,2638,2637,2637,2639,2650,2690,2716,2771,2777,2776,2763,2737,2717,2698,2693,2691,2690,2686,2682,2673,2660,2657,2645,2639,2639,2640,2642,2644,2642,2648,2678,2733,2812,2846,2848,2826,2805,2779,2745,2696,2618,2561,2536,2539,2554,2558,2577,2590,2602,2621,2674,2782,2813,2784,2736,2711,2693,2679,2666,2655,2644,2639,2636,2631,2635,2651,2701,2718,2754,2764,2775,2761,2748,2730,2714,2708,2699,2695,2692,2688,2687,2671,2664,2652,2651,2641,2637,2631,2630,2627,2635,2643,2675,2691,2749,2772,2774,2767,2748,2743,2735,2720,2701,2691,2691,2690,2686,2683,2685,2674,2665,2656,2652,2644,2637,2637,2635,2637,2634,2634,2630,2632,2631,2650,2685,2703,2716,2764,2786,2791,2788,2765,2743,2721,2712,2708,2707,2704,2701,2688,2682,2669,2663,2658,2659,2650,2642,2637,2635,2647,2680,2737,2747,2774,2770,2744,2723,2698,2684,2679,2677,2678,2672,2673,2663,2657,2656,2645,2643,2638,2639,2634,2636,2633,2632,2628,2630,2627,2640,2657,2696,2714,2745,2770,2785,2789,2778,2768,2759,2756,2748,2735,2717,2716,2704,2705,2701,2700,2690,2684,2669,2654,2648,2644,2641,2641,2645,2640,2639,2660,2696,2748,2781,2792,2786,2751,2724,2712,2702,2695,2667,2652,2642,2638,2632,2638,2640,2662,2689,2737,2763,2762,2766,2755,2755,2735,2735,2717,2718,2707,2709,2707,2712,2713,2703,2703,2695,2684,2664,2662,2646,2647,2641,2639,2642,2671,2725,2780,2790,2750,2733,2713,2700,2699,2691,2694,2682,2679,2671,2668,2660,2662,2654,2644,2642,2639,2631,2635,2634,2658,2722,2764,2766,2749,2741,2727,2715,2712,2706,2707,2698,2692,2684,2677,2671,2659,12
2541,2524,2502,2496,2485,2479,2469,2465,2464,2467,2473,2503,2529,2646,2700,2874,2984,3110,3113,3104,3037,3010,2949,2917,2889,2812,2774,2736,2728,2714,2709,2699,2694,2685,2662,2621,2571,2527,2488,2469,2454,2450,2445,2442,2437,2440,2442,2446,2448,2448,2451,2467,2483,2580,2626,2679,2853,3004,3036,3059,3073,3031,2949,2916,2853,2825,2797,2731,2701,2688,2681,2675,2669,2656,2617,2568,2484,2451,2422,2422,2423,2431,2432,2436,2439,2439,2444,2446,2456,2514,2550,2639,2812,2982,3084,3022,2900,2842,2818,2755,2743,2730,2714,2710,2701,2682,2642,2623,2589,2541,2500,2474,2458,2457,2454,2456,2455,2461,2461,2476,2485,2505,2561,2600,2761,2820,2885,2999,3084,3130,3071,3014,2984,2950,2863,2835,2814,2791,2746,2728,2720,2719,2713,2705,2697,2679,2670,2655,2592,2547,2531,2497,2485,2479,2460,2453,2455,2455,2457,2458,2462,2461,2467,2583,2814,2948,3064,3166,3175,3162,3146,3055,3024,2919,2890,2833,2787,2736,2727,2711,2694,2674,2636,2623,2605,2531,2477,2458,2416,2403,2380,2369,2371,2375,2384,2400,2403,2409,2415,2415,2420,2421,2422,2425,2477,2509,2801,3010,3072,3158,3181,3195,3193,3140,3036,3001,2962,2866,2794,2780,2765,2748,2744,2746,2743,2731,2697,2667,2634,2619,2601,2588,2560,2546,2520,2508,2495,2492,2493,2491,2492,2490,2493,2491,2495,2493,2497,2497,2503,2520,2537,2565,2690,2750,2879,2943,3009,3153,3182,3198,3075,2848,2752,2723,2717,2720,2718,2716,2714,2683,2652,2598,2537,2521,2503,2466,2454,2439,2433,2431,2431,2436,2441,2453,2459,2462,2468,2468,2477,2505,2528,2662,2997,3164,3221,3182,3149,3042,2926,2894,2860,2808,2770,2740,2732,2731,2727,2719,2710,2659,2644,2587,2537,2518,2490,2461,2441,2440,2434,2436,2440,2439,2450,2450,2459,2458,2461,2469,2483,2528,2561,2608,2789,3007,3216,3203,3111,2997,2956,2858,2827,2781,2766,2730,2728,2722,2717,2719,2704,2700,2688,2629,2577,2541,2491,2463,2452,2442,2438,2443,2442,2456,2458,2465,2478,2495,2504,2553,2679,2798,3008,3077,3252,3255,3238,3141,3062,2985,2951,2915,2815,2770,2763,2760,2751,2740,2706,2686,2670,2588,2513,2482,2460,2442,2434,2433,2427,2436,2444,2448,2453,2450,2456,2553,2775,2972,3103,3128,3120,3102,2998,2882,2774,2706,2671,2670,2673,2679,2677,2680,2653,2642,2590,2551,2503,2485,2460,2439,2425,2428,2426,2433,2438,2452,2461,2504,2623,2675,2878,2945,3126,3162,3179,3149,3080,2928,2835,2787,2733,2724,2717,2656,2586,2490,2443,2441,2476,2673,3020,3201,3043,2864,2790,2767,2729,2719,2710,2695,2694,2660,2650,2594,2580,2521,2490,2463,2456,2443,2427,2416,2416,2417,2422,2426,2426,2439,2507,2648,2714,2922,3103,3137,3166,3165,3090,3014,2896,2864,2829,2757,2713,2705,2701,2698,2687,2622,2548,2495,2442,2437,2445,2453,2466,2573,2802,3087,3128,3019,2900,2766,2704,2671,2663,2640,2622,2575,2515,2500,2452,2429,2413,2405,2405,2404,2410,2409,2443,2584,2637,2847,2989,3105,3177,3185,3115,3005,2901,2838,2750,2732,2726,2703,2703,2686,2651,2640,2583,2505,2460,2423,2402,2407,2409,2416,2415,2428,2463,2576,2759,2984,3045,3184,3198,3183,3153,3050,3006,2865,2840,2793,2740,2722,2715,2689,2674,2632,2577,2561,2524,2487,2434,2400,2385,2375,2372,2369,2381,2382,2398,2411,2464,2602,2799,2949,3078,3133,3199,3201,3183,3128,3095,3051,2881,2782,2751,2703,2690,2689,2686,2695,2690,2671,2642,2607,2584,2568,2509,2496,2455,2449,2428,2423,2422,2426,2424,2433,2451,2472,2686,2895,3126,3174,3124,3005,2877,2737,2674,2658,2672,2669,2667,2633,2590,2534,2480,2463,2459,2439,2436,2433,2457,2544,2596,2650,2864,3063,3180,3192,3096,2976,2898,2829,2801,2769,2723,2708,2689,2661,2646,2619,2600,2547,2522,2465,2443,2399,2375,2347,2344,2354,2352,2364,2378,2399,2497,2554,2757,2840,3053,3112,3194,3167,3058,2935,2725,2669,2648,2652,2645,2631,2615,2570,2544,2480,2452,2377,2350,2341,2342,2343,2362,2387,2406,2431,2525,2696,2776,3014,3093,3247,3283,3242,3081,3032,2912,2819,2803,2768,2769,2770,2777,2770,2768,2755,2684,2617,2502,2446,2428,2435,2499,2635,2848,3061,3164,3212,3218,3150,3024,2876,2793,2683,2673,2660,2659,2669,2674,2641,2491,2419,2375,2370,2374,2393,2409,2493,2546,2747,2913,3152,3281,3297,3251,3220,3083,3038,2898,2824,2768,2709,2707,2701,2706,2697,2695,2658,2565,2497,2443,2398,2376,2368,2369,2363,2379,2386,2412,2426,2457,2595,2826,3002,3223,3295,3179,3078,2929,2821,2788,2719,2714,2721,2702,2694,2676,2625,2599,2514,2468,2430,2414,2408,2407,2419,2417,2423,2421,2423,2422,2434,2478,2563,2767,2855,3107,3183,3312,3325,3250,3158,2952,2823,2747,2727,2714,2718,2723,2698,2650,2624,2555,2526,2460,2419,2372,2345,2356,2369,2407,2430,2537,2726,2795,2875,3021,3080,3195,3201,3119,3081,2931,2885,2749,2717,2642,2623,2625,2636,2641,2667,2662,2658,2590,2515,2496,2471,2429,2415,2397,2386,2357,2350,2346,2355,2357,2403,2430,2585,2651,2895,2973,3210,3244,3225,3078,3034,2983,2855,2752,2732,2700,2681,2691,2692,2682,2624,2563,2494,2477,2424,2415,2387,2379,2384,2382,2386,2418,2445,2476,2640,2955,3031,3218,3248,3270,3235,3121,2881,2704,2676,2683,2677,2674,2661,2618,2551,2503,2444,2394,2386,2372,2361,2365,2373,2381,2402,2411,2503,2549,2756,2833,3136,3193,3256,3201,3158,3018,2965,2830,2788,2707,2686,2665,2674,2659,2653,2603,2587,2519,2460,2408,2380,2367,2368,2375,2376,2385,2402,2411,2456,2572,2700,2935,3137,3231,3154,3009,2861,2812,2774,2684,2654,2650,2656,2689,2697,2681,2568,2438,2416,2403,2409,2414,2420,2430,2474,2596,2864,2936,3128,3166,3204,3186,3082,3031,2878,2827,2709,2639,2632,2625,2630,2651,2671,2681,2683,2677,2664,2653,2594,2494,2421,2402,2402,2424,2499,2650,2721,2794,3030,3096,3235,3099,2819,2674,2685,2690,2664,2617,2533,2472,2459,2421,2406,2401,2400,2410,2469,2659,3123,3291,3158,2858,2742,2740,2649,2537,2444,2416,2400,2401,2403,2409,2418,2429,2446,2649,2950,3149,3226,3139,3100,3051,2907,2777,2716,2660,2639,2641,2644,2629,2622,2569,2551,2484,2465,2404,2375,2365,2349,2340,2345,2360,2381,2385,2409,2470,2503,2675,2744,2825,3057,3126,3240,3252,3244,3161,3072,3019,2972,2836,2769,2710,2699,2700,2715,2722,2716,2710,2697,2643,2619,2551,2484,2439,2410,2407,2402,2413,2415,2421,2431,2463,2484,2612,2671,2896,2972,3171,3211,3240,3230,3205,3078,3032,2887,2846,2744,2722,2679,2674,2686,2689,2679,2645,2585,2524,2464,2423,2412,2394,2389,2392,2393,2406,2416,2425,2443,2456,2482,2610,2914,3222,3298,3136,2951,2844,2814,2759,2738,2739,2737,2726,2671,2631,2544,2520,2468,2451,2420,2410,2401,2396,2408,2416,2428,2437,2465,2494,2636,2864,2945,3030,3227,3303,3280,3168,3025,2885,2706,2690,2690,2683,2635,2578,2554,2489,2428,2414,2376,2371,2355,2356,2354,2361,2373,2373,2388,2398,2419,2535,2817,2900,3113,3216,3207,3107,2961,2906,2859,2731,2702,2639,2646,2657,2667,2687,2690,2678,2631,2565,2546,2523,2472,2418,2411,2412,2411,2419,2432,2440,2511,2551,2734,2806,3041,3106,3204,3244,3243,3160,3067,2913,2775,2687,2656,2652,2660,2686,2701,2679,2607,2543,2503,2433,2421,2421,2460,2593,3034,3265,3153,2953,2727,2683,2681,2691,2613,2466,2401,2385,2390,2405,2447,2575,2635,2708,2952,3180,3231,3270,3284,3189,3141,3092,2989,2847,2686,2675,2680,2670,2629,2542,2474,2433,2368,2357,2365,2376,2393,2421,2529,2726,2964,3040,3195,3165,2921,2782,2741,2661,2643,2625,2646,2620,2588,2566,2497,2427,2371,2332,2317,2314,2322,2328,2364,2514,2576,2810,3053,3229,3203,3030,2871,2824,2705,2654,2629,2626,2636,2663,2629,2570,2548,2479,2423,2407,2375,2367,2364,2358,2361,2369,2381,2408,2520,2578,2813,3075,3264,3309,3229,2940,2821,2730,2724,2736,2737,2733,2687,2668,2599,2482,2428,2389,2382,2386,2393,2402,2407,2451,2591,2834,2926,3198,3381,3304,3151,3096,3040,2894,2791,2737,2720,2723,2724,2699,2649,2625,2552,2526,2458,2436,2390,2378,2360,2367,2383,2387,2409,2413,2416,2433,2453,2584,2809,2991,3284,3322,3343,3215,3045,2759,2697,2689,2715,2734,2683,2615,2562,2485,2430,2413,2387,2378,2387,2399,2408,2424,2471,2609,2751,3005,3227,3317,3266,3063,2842,2758,2700,2681,2665,2679,2710,2725,2720,2684,2661,2587,2559,2533,2457,2400,2385,2359,2350,2355,2371,2375,2398,2430,2498,2547,2761,2846,3115,3190,3257,3338,3330,3211,3039,2982,2830,2791,2683,2700,2742,2630,2473,2414,2370,2363,2365,2376,2378,2393,2423,2543,2764,2853,3129,3206,3350,3361,3358,3257,3206,3022,2962,2798,2757,2718,2652,2647,2654,2683,2688,2683,2637,2535,2508,2430,2352,2340,2339,2356,2388,2509,2570,2645,2813,2904,3159,3298,3198,3026,2847,2670,2609,2606,2621,2657,2674,2658,2604,2559,2512,2490,2429,2393,2385,2383,2378,2382,2401,2462,2615,2931,3162,3219,3287,3218,3057,2873,2713,2674,2597,2590,2597,2641,2671,2668,2623,2605,2581,2511,2447,2415,2386,2369,2379,2400,2427,2745,3018,3106,3290,3321,3297,3217,3051,2826,2702,2639,2628,2630,2636,2657,2658,2631,2616,2552,2530,2458,2439,2386,2363,2349,2350,2357,2415,2569,2639,2722,3071,3280,3290,3232,3085,3030,2860,2725,2621,2598,2601,2612,2606,2497,2447,2407,2389,2383,2392,2396,2448,2481,2529,2896,3068,3146,3289,3305,3251,3104,2927,2778,2677,2642,2636,2637,2657,2659,2655,2615,2598,2575,2505,2479,2414,2362,2334,2323,2332,2363,2431,2686,2934,3133,3190,3114,2895,2730,2595,2572,2651,2669,2472,2371,2343,2377,2904,3204,3072,2816,2698,2630,2623,2622,2632,2672,2572,2454,2398,2366,2351,2357,2412,2556,2628,2886,3155,3224,3317,3332,3226,3019,2876,2743,2691,2672,2614,2460,2370,2343,2336,2333,2348,2355,2394,2426,2662,2921,3012,3218,3258,3269,3246,3109,3000,2948,2847,2702,2679,2646,2643,2652,2662,2656,2624,6
2440,2417,2397,2397,2391,2387,2378,2373,2389,2437,2533,2568,2612,2719,2795,2804,2814,2803,2784,2769,2740,2728,2707,2698,2687,2680,2665,2649,2618,2590,2553,2529,2527,2521,2517,2518,2516,2514,2512,2508,2505,2507,2509,2547,2623,2691,2730,2796,2821,2876,2881,2877,2847,2838,2824,2797,2788,2785,2772,2764,2765,2749,2724,2712,2703,2663,2629,2616,2609,2584,2580,2573,2558,2555,2555,2550,2556,2585,2607,2628,2803,2874,2902,2964,2970,2975,2973,2963,2934,2919,2909,2872,2844,2820,2801,2776,2749,2735,2700,2683,2673,2623,2590,2584,2560,2558,2542,2535,2530,2530,2524,2531,2568,2593,2686,2727,2841,2876,2944,2959,2966,2968,2953,2921,2912,2875,2853,2844,2833,2810,2788,2782,2772,2745,2731,2706,2694,2678,2624,2602,2573,2559,2550,2535,2521,2512,2501,2493,2489,2490,2511,2529,2551,2647,2833,2913,2920,2911,2892,2859,2849,2836,2780,2760,2750,2722,2711,2702,2656,2604,2568,2539,2515,2503,2497,2497,2501,2504,2511,2520,2527,2566,2646,2680,2717,2832,2865,2936,2948,2956,2949,2919,2907,2876,2859,2842,2833,2829,2826,2807,2779,2767,2754,2696,2667,2653,2640,2606,2596,2581,2573,2567,2552,2548,2543,2530,2518,2514,2527,2585,2616,2651,2770,2883,2914,2937,2976,2980,2979,2963,2930,2917,2903,2861,2845,2804,2791,2757,2723,2711,2698,2654,2638,2592,2577,2537,2527,2499,2485,2476,2472,2458,2453,2448,2442,2436,2435,2455,2471,2492,2590,2772,2816,2924,2947,2988,2992,2987,2956,2944,2909,2867,2841,2803,2779,2736,2691,2676,2662,2618,2552,2523,2509,2494,2491,2484,2475,2463,2461,2454,2447,2437,2436,2432,2440,2480,2506,2534,2702,2794,2837,2872,2950,2962,2972,2965,2961,2925,2914,2869,2829,2812,2802,2768,2761,2729,2721,2684,2674,2630,2603,2577,2568,2523,2511,2505,2503,2503,2502,2503,2502,2496,2500,2500,2539,2622,2664,2702,2836,2872,2960,2973,2985,2968,2924,2879,2834,2810,2788,2777,2772,2748,2704,2664,2615,2575,2540,2521,2512,2509,2498,2496,2493,2487,2488,2485,2531,2614,2742,2958,2990,2973,2965,2924,2913,2870,2835,2822,2815,2784,2777,2743,2734,2690,2650,2634,2623,2586,2579,2554,2542,2535,2527,2521,2509,2509,2496,2496,2486,2486,2521,2603,2788,2937,3010,3085,3087,3084,3070,3020,2988,2922,2903,2859,2842,2833,2783,2772,2737,2717,2704,2647,2604,2587,2578,2539,2514,2513,2498,2493,2486,2487,2473,2473,2465,2456,2444,2447,2447,2491,2512,2633,2677,2842,2886,2972,3008,3029,3075,3073,3076,3052,3021,2991,2936,2890,2870,2859,2807,2761,2739,2725,2662,2647,2586,2572,2514,2484,2448,2410,2407,2379,2377,2351,2337,2321,2310,2295,2275,2281,2321,2579,2688,2851,2906,2898,2885,2860,2845,2827,2824,2812,2799,2783,2760,2737,2697,2665,2643,2612,2599,2589,2575,2572,2563,2550,2548,2590,2676,2812,2904,2983,3063,3062,3044,3025,3013,2954,2940,2889,2880,2847,2831,2821,2819,2790,2785,2758,2737,2726,2664,2606,2567,2543,2511,2501,2459,2454,2423,2411,2489,2647,2778,2859,2880,2886,2889,2871,2826,2789,2755,2752,2743,2744,2731,2690,2630,2597,2562,2553,2546,2551,2553,2577,2654,2760,2892,3014,3031,3030,3005,2890,2807,2766,2749,2730,2707,2705,2691,2666,2615,2565,2531,2507,2477,2475,2467,2540,2581,2711,2858,2893,2932,2990,3005,2981,2952,2904,2895,2844,2806,2761,2721,2699,2648,2623,2583,2570,2513,2484,2453,2418,2381,2361,2341,2362,2375,2475,2513,2669,2766,2867,2916,2914,2917,2893,2873,2834,2783,2741,2688,2649,2616,2570,2560,2540,2498,2479,2449,2438,2420,2387,2353,2350,2339,2329,2322,2312,2313,2304,2304,2316,2324,2369,2583,2727,2844,2865,2888,2912,2914,2906,2904,2880,2875,2843,2837,2807,2802,2772,2767,2734,2726,2710,2675,2632,2622,2606,2577,2548,2534,2522,2511,2502,2494,2489,2489,2482,2480,2475,2471,2466,2464,2473,2526,2609,2680,2750,2830,2843,2860,2871,2868,2862,2863,2849,2849,2839,2831,2831,2815,2816,2799,2799,2776,2771,2759,2733,2701,2696,2683,2664,2644,2641,2632,2624,2611,2612,2603,2600,2586,2586,2577,2566,2570,2584,2640,2690,2767,2832,2840,2853,2851,2829,2826,2803,2802,2787,2789,2782,2786,2779,2775,2760,2748,2725,2691,2685,2656,2652,2627,2625,2616,2606,2598,2591,2585,2580,2569,2567,2600,2655,2725,2740,2784,2760,2719,2706,2696,2698,2694,2697,2689,2671,2656,2635,2624,2614,2602,2603,2599,2598,2596,2598,2596,2599,2597,2600,2597,2594,2596,2590,2588,2588,2603,2654,2674,2700,2774,2841,2848,2842,2822,2812,2807,2780,2776,2773,2774,2769,2770,2760,2757,2742,2738,2720,2716,2707,2698,2686,2681,2675,2674,2665,2653,2649,2644,2640,2634,2633,2631,2640,2646,2659,2736,2832,2874,2880,2873,2868,2836,2798,2784,2771,2759,2758,2751,2751,2747,2740,2726,2722,2714,2699,2684,2681,2676,2670,2666,2667,2664,2665,2663,2665,2660,2660,2654,2654,2650,2649,2647,2648,2656,2688,2704,2724,2829,2866,2865,2861,2852,2821,2784,2765,2759,2756,2761,2763,2753,2739,2721,2710,2703,2698,2696,2691,2689,2683,2681,2673,2670,2672,2675,2708,2722,2740,2799,2818,2854,2860,2857,2837,2828,2820,2799,2786,2778,2774,2773,2773,2771,2764,2760,2756,2739,2720,2714,2708,2698,2691,2680,2678,2672,2667,2663,2654,2652,2648,2638,2653,2699,2763,2787,2806,2849,2859,2859,2856,2844,2839,2828,2823,2814,2810,2806,2799,2795,2793,2784,2768,2750,2730,2714,2708,2688,2675,2667,2664,2654,2644,2629,2617,2608,2609,2623,2637,2694,2744,2820,2871,2896,2898,2895,2882,2876,2863,2843,2839,2834,2823,2820,2813,2808,2786,2760,2750,2741,2721,2677,2656,2634,2612,2598,2581,2577,2560,2557,2550,2538,2532,2525,2519,2530,2571,2594,2617,2729,2799,2813,2837,2838,2827,2815,2808,2795,2778,2766,2749,2725,2699,2666,2616,2591,2562,2553,2537,2522,2521,2507,2506,2492,2485,2482,2491,2538,2642,2722,2780,2787,2797,2779,2764,2744,2732,2727,2704,2678,2642,2619,2594,2579,2571,2570,2554,2540,2529,2519,2513,2505,2508,2534,2556,2631,2739,2833,2898,2920,2921,2884,2845,2807,2776,2750,2702,2676,2620,2573,2543,2530,2517,2518,2517,2519,2518,2512,2510,2505,2504,2500,2499,2512,2687,2870,2929,2951,2941,2920,2899,2861,2824,2815,2773,2695,2629,2610,2575,2546,2543,2534,2526,2519,2514,2515,2508,2505,2495,2495,2489,2486,2475,2477,2472,2471,2471,2469,2469,2469,2486,2550,2650,2779,2855,2909,2924,2947,2927,2897,2850,2826,2807,2789,2776,2752,2739,2719,2684,2655,2636,2606,2605,2594,2586,2574,2567,2567,2557,2558,2552,2548,2550,2539,2541,2534,2534,2538,2550,2559,2635,2704,2819,2926,2968,2983,2986,2969,2928,2891,2850,2846,2818,2817,2808,2799,2776,2773,2760,2731,2687,2681,2664,2636,2595,2586,2569,2564,2559,2550,2547,2542,2529,2531,2527,2563,2579,2611,2718,2860,2940,3016,3035,3039,3025,3010,3003,2966,2924,2918,2884,2879,2845,2839,2801,2746,2734,2680,2668,2648,2609,2566,2561,2547,2528,2505,2505,2495,2484,2464,2463,2453,2443,2438,2438,2491,2554,2683,2835,2875,2918,2989,3010,3003,3000,2964,2956,2916,2908,2871,2849,2825,2792,2785,2767,2727,2668,2653,2615,2556,2516,2499,2470,2440,2437,2425,2410,2400,2380,2372,2364,2358,2351,2357,2359,2419,2448,2583,2629,2686,2824,2866,2930,2941,2932,2896,2869,2853,2840,2831,2834,2824,2827,2822,2815,2801,2788,2781,2738,2729,2711,2685,2678,2643,2640,2627,2616,2597,2599,2589,2583,2567,2561,2553,2554,2579,2752,2936,3028,3053,3061,3039,3009,2957,2929,2899,2868,2857,2840,2822,2806,2799,2781,2718,2674,2655,2620,2587,2586,2575,2559,2555,2549,2535,2528,2519,2522,2542,2617,2804,2860,2999,3088,3095,3103,3062,3028,2954,2940,2883,2820,2773,2726,2693,2656,2641,2617,2566,2514,2504,2488,2462,2438,2438,2430,2425,2418,2415,2404,2402,2400,2482,2558,2657,2819,2874,2988,3044,3044,3047,3022,2987,2959,2906,2862,2805,2763,2728,2668,2647,2606,2561,2552,2535,2505,2472,2453,2435,2425,2414,2406,2401,2396,2385,2382,2376,2379,2383,2441,2470,2613,2731,2898,2951,3043,3063,3063,3058,3012,3000,2965,2943,2899,2882,2873,2848,2834,2828,2791,2782,2752,2694,2637,2578,2566,2545,2516,2489,2481,2477,2470,2468,2469,2464,2462,2465,2460,2459,2453,2443,2446,2447,2461,2528,2610,2770,2922,3028,3041,3054,3042,3016,2966,2899,2883,2857,2840,2825,2822,2812,2789,2745,2714,2676,2640,2592,2574,2542,2531,2515,2508,2502,2504,2498,2499,2490,2484,2485,2479,2473,2466,2455,2454,2444,2446,2457,2469,2491,2596,2765,2889,3046,3087,3149,3149,3136,3125,3072,3034,2955,2916,2900,2879,2831,2780,2767,2748,2698,2661,2639,2623,2602,2566,2534,2493,2479,2453,2431,2424,2418,2413,2413,2399,2391,2379,2376,2367,2368,2408,2565,2754,2817,3000,3141,3104,3051,2980,2947,2916,2880,2844,2834,2818,2756,2742,2681,2628,2609,2595,2566,2529,2507,2477,2463,2452,2445,2432,2432,2421,2425,2446,2469,2532,2681,2870,3025,3110,3122,3103,3084,3068,3043,2947,2886,2867,2832,2807,2804,2775,2732,2698,2643,2621,2604,2553,2502,2482,2474,2469,2466,2462,2459,2455,2455,2453,2453,2488,2511,2544,2630,2738,2797,2972,3115,3127,3126,3080,3062,3040,2977,2918,2903,2888,2836,2809,2783,2753,2735,2673,2629,2609,2589,2571,2508,2483,2464,2439,2426,2408,2398,2387,2378,2371,2367,2372,2427,2554,2739,2806,2988,3103,3135,3097,3062,3024,2968,2949,2900,2856,2842,2830,2802,2772,2715,2651,2564,2513,2471,2461,2435,2419,2415,2413,2408,2406,2405,2405,2401,2398,2391,2388,2385,2387,2393,2450,2577,2696,2899,3132,3161,3105,3047,3027,2974,2929,2892,2858,2817,2783,2743,2722,2655,2634,2575,2558,2529,2515,2505,2479,2469,2460,2448,2439,2427,2414,2410,2398,2409,2477,2673,2862,3019,3054,3080,3102,3065,3045,3024,2939,2903,2875,2854,2845,2825,2800,2759,2741,2679,2609,2588,2565,2529,2514,2478,2471,2454,2449,2449,2446,2446,2435,2441,2450,2469,2564,2794,2924,3084,3158,3167,3147,3093,3071,14
2742,2772,2809,2873,2905,2905,2904,2894,2893,2874,2821,2773,2745,2730,2701,2668,2651,2630,2617,2601,2578,2578,2558,2559,2542,2543,2527,2528,2520,2516,2505,2508,2502,2504,2499,2498,2502,2500,2555,2684,2726,2828,2860,2906,2927,2924,2930,2926,2924,2913,2910,2852,2821,2776,2749,2713,2685,2650,2634,2616,2594,2576,2568,2553,2547,2540,2541,2532,2531,2520,2523,2545,2567,2646,2683,2777,2809,2858,2874,2869,2870,2857,2849,2832,2816,2802,2796,2782,2749,2724,2707,2676,2671,2638,2633,2616,2603,2598,2571,2562,2553,2540,2541,2536,2533,2526,2524,2517,2514,2511,2526,2535,2557,2671,2772,2806,2865,2890,2889,2893,2890,2888,2874,2849,2812,2804,2773,2768,2758,2733,2713,2701,2678,2648,2642,2631,2604,2590,2582,2574,2567,2568,2556,2552,2545,2546,2534,2530,2527,2518,2522,2524,2538,2662,2775,2863,2888,2899,2921,2916,2918,2912,2905,2888,2874,2843,2803,2796,2766,2762,2750,2730,2719,2698,2685,2662,2635,2615,2594,2575,2568,2560,2552,2545,2532,2527,2524,2526,2521,2523,2521,2587,2612,2715,2813,2842,2884,2891,2876,2864,2857,2838,2827,2798,2785,2760,2751,2738,2735,2727,2704,2685,2674,2653,2644,2628,2612,2597,2594,2572,2557,2549,2537,2531,2535,2539,2553,2618,2649,2750,2785,2877,2884,2891,2880,2878,2866,2862,2836,2828,2791,2779,2765,2738,2725,2705,2690,2665,2657,2640,2621,2607,2586,2568,2545,2496,2441,2382,2317,2254,2214,2179,2180,2198,2257,2337,2356,2400,2411,2414,2414,2421,2419,2411,2403,2396,2400,2403,2429,2461,2493,2525,2531,2542,2563,2558,2549,2534,2527,2528,2530,2532,2526,2524,2512,2510,2510,2522,2593,2671,2809,2931,2963,3012,3021,3017,3014,3011,3004,2986,2973,2974,2996,3010,3014,3014,3009,2983,2940,2922,2901,2834,2791,2744,2720,2714,2709,2698,2705,2728,2761,2860,2827,2797,2776,2752,2728,2710,2707,2711,2715,2727,2731,2729,2727,2706,2697,2686,2660,2659,2665,2688,2719,2755,2775,2793,2869,2942,3088,3243,3284,3353,3353,3297,3261,3137,3093,2971,2930,2891,2784,2726,2702,2678,2632,2620,2621,2630,2633,2634,2632,2634,2636,2642,2661,2700,2723,2743,2755,2778,2783,2774,2758,2719,2663,2617,2524,2453,2417,2388,2359,2301,2310,2317,2346,2369,2378,2384,2406,2412,2421,2451,2465,2476,2488,2514,2539,2556,2561,2560,2559,2549,2560,2606,2688,2765,2785,2797,2809,2780,2765,2747,2735,2729,2715,2708,2697,2692,2686,2682,2675,2665,2642,2619,2591,2569,2549,2537,2543,2587,2613,2696,2727,2779,2798,2815,2830,2821,2821,2816,2817,2809,2805,2799,2796,2794,2770,2740,2693,2666,2645,2640,2652,2710,2877,2964,2967,2966,2947,2940,2936,2937,2920,2915,2904,2877,2842,2837,2825,2807,2778,2748,2705,2665,2649,2601,2584,2575,2578,2589,2636,2752,2783,2749,2686,2675,2630,2620,2570,2558,2528,2510,2500,2461,2416,2382,2356,2351,2357,2357,2370,2385,2398,2408,2503,2606,2634,2711,2731,2733,2724,2706,2698,2696,2688,2691,2689,2688,2686,2687,2690,2704,2716,2725,2746,2791,2806,2838,2863,2899,2927,2928,2933,2932,2935,2911,2870,2834,2803,2800,2794,2799,2800,2831,2876,2976,3021,3140,3220,3225,3227,3157,3025,2967,2801,2698,2570,2542,2475,2469,2472,2501,2570,2627,2646,2660,2662,2644,2637,2627,2622,2611,2593,2581,2564,2555,2549,2536,2526,2514,2492,2490,2481,2476,2475,2475,2510,2558,2624,2702,2783,2817,2858,2926,2964,2966,2976,2982,2981,2971,2969,2932,2924,2907,2881,2853,2851,2840,2821,2788,2782,2767,2736,2696,2689,2671,2646,2638,2621,2598,2598,2633,2708,2756,2796,2805,2787,2764,2749,2745,2712,2679,2674,2641,2639,2617,2610,2605,2586,2570,2557,2554,2526,2524,2500,2490,2483,2475,2468,2455,2459,2458,2498,2577,2616,2647,2766,2804,2801,2794,2784,2772,2761,2734,2729,2695,2675,2664,2662,2645,2638,2628,2606,2591,2580,2578,2556,2535,2527,2520,2513,2510,2500,2502,2497,2498,2500,2516,2529,2613,2711,2749,2776,2837,2845,2825,2806,2796,2794,2771,2750,2720,2704,2687,2689,2676,2668,2659,2648,2638,2618,2610,2604,2598,2595,2591,2586,2589,2588,2583,2585,2580,2584,2581,2584,2580,2600,2634,2716,2826,2911,2939,2940,2928,2902,2887,2864,2846,2834,2829,2815,2795,2783,2782,2762,2753,2743,2742,2728,2714,2686,2683,2658,2639,2631,2625,2618,2616,2604,2602,2600,2641,2659,2747,2828,2855,2883,2874,2839,2817,2801,2775,2757,2745,2733,2724,2717,2718,2711,2711,2693,2678,2667,2664,2641,2619,2603,2603,2590,2591,2580,2579,2607,2669,2702,2788,2819,2867,2877,2865,2850,2833,2811,2809,2800,2781,2747,2734,2715,2703,2694,2677,2652,2650,2639,2626,2616,2614,2601,2599,2595,2597,2592,2591,2586,2589,2628,2703,2738,2833,2863,2882,2909,2895,2884,2865,2843,2840,2829,2794,2757,2738,2709,2698,2676,2663,2636,2623,2600,2589,2585,2563,2553,2547,2548,2536,2533,2529,2528,2524,2526,2530,2621,2725,2817,2866,2855,2825,2798,2780,2754,2733,2722,2709,2692,2679,2660,2630,2621,2607,2577,2542,2534,2521,2500,2490,2488,2480,2469,2466,2461,2464,2463,2463,2493,2511,2540,2641,2757,2787,2818,2854,2857,2850,2829,2804,2794,2785,2771,2769,2763,2756,2746,2746,2737,2718,2697,2686,2663,2654,2648,2626,2614,2606,2603,2591,2587,2582,2578,2574,2573,2578,2621,2647,2743,2780,2871,2908,2918,2892,2875,2853,2831,2826,2803,2787,2771,2761,2754,2739,2712,2706,2696,2671,2646,2641,2634,2621,2608,2602,2594,2612,2650,2883,2936,2906,2877,2851,2844,2791,2765,2747,2740,2725,2679,2649,2614,2594,2587,2574,2563,2558,2549,2543,2547,2668,2779,2880,2928,2929,2925,2920,2902,2898,2878,2872,2845,2803,2795,2779,2751,2728,2704,2694,2666,2620,2588,2565,2550,2537,2529,2523,2512,2528,2593,2624,2735,2838,2891,2895,2878,2871,2849,2816,2806,2748,2720,2696,2691,2685,2664,2621,2597,2568,2562,2546,2526,2514,2505,2499,2497,2549,2636,2740,2822,2851,2849,2830,2822,2799,2784,2769,2738,2717,2699,2687,2673,2647,2640,2622,2616,2611,2597,2586,2582,2579,2567,2556,2555,2543,2541,2556,2611,2764,2841,2843,2806,2779,2742,2716,2693,2681,2670,2651,2633,2625,2611,2595,2575,2567,2555,2548,2548,2557,2569,2666,2731,2794,2858,2874,2875,2862,2861,2848,2846,2825,2809,2781,2750,2735,2717,2693,2671,2639,2616,2600,2583,2574,2563,2562,2554,2550,2540,2534,2523,2523,2527,2610,2756,2877,2914,2917,2909,2904,2900,2887,2858,2829,2790,2764,2744,2728,2701,2661,2629,2579,2550,2529,2514,2504,2497,2488,2485,2516,2596,2784,2881,2917,2919,2913,2906,2898,2879,2861,2810,2789,2775,2753,2737,2702,2679,2653,2631,2615,2597,2588,2576,2564,2566,2556,2560,2561,2610,2694,2766,2867,2915,2913,2880,2864,2831,2817,2795,2781,2761,2719,2696,2630,2603,2585,2584,2562,2547,2534,2532,2580,2787,2906,2937,2927,2919,2897,2886,2859,2820,2813,2800,2777,2749,2746,2734,2711,2671,2652,2621,2616,2588,2558,2537,2520,2513,2506,2495,2496,2490,2497,2536,2564,2666,2791,2882,2928,2928,2929,2916,2916,2908,2891,2855,2846,2828,2801,2792,2777,2770,2737,2713,2699,2673,2635,2592,2567,2535,2513,2497,2494,2485,2486,2484,2479,2477,2487,2525,2656,2785,2877,2921,2913,2912,2902,2891,2872,2859,2844,2809,2791,2761,2731,2705,2683,2647,2623,2589,2567,2554,2538,2525,2519,2516,2508,2512,2541,2626,2735,2845,2888,2908,2906,2896,2876,2844,2809,2787,2762,2734,2731,2715,2671,2631,2587,2563,2537,2535,2525,2512,2495,2496,2487,2472,2469,2547,2806,2904,2891,2860,2817,2769,2730,2707,2667,2630,2622,2587,2565,2553,2550,2530,2522,2513,2514,2503,2494,2485,2485,2475,2481,2485,2546,2691,2849,2910,2925,2930,2918,2912,2854,2811,2781,2749,2716,2694,2660,2636,2607,2604,2593,2573,2556,2552,2539,2540,2526,2527,2514,2515,2507,2502,2531,2546,2640,2674,2803,2922,2932,2948,2927,2917,2901,2867,2835,2812,2782,2753,2749,2713,2681,2665,2657,2622,2600,2589,2588,2569,2555,2545,2531,2526,2537,2603,2705,2751,2787,2893,2950,2948,2945,2929,2914,2852,2810,2781,2750,2705,2647,2621,2592,2579,2564,2546,2545,2538,2529,2521,2512,2498,2501,2524,2606,2722,2877,2942,2957,2960,2952,2946,2921,2868,2825,2773,2760,2731,2717,2708,2670,2611,2575,2539,2534,2512,2500,2486,2472,2465,2451,2445,2450,2498,2529,2561,2696,2832,2872,2969,2983,2984,2973,2969,2936,2859,2800,2760,2737,2702,2659,2648,2608,2598,2565,2558,2532,2528,2508,2505,2489,2486,2468,2454,2452,2440,2434,2426,2433,2456,2534,2660,2702,2825,2895,2921,2922,2916,2889,2856,2805,2775,2754,2728,2723,2693,2667,2656,2626,2609,2587,2571,2558,2540,2534,2526,2514,2509,2504,2525,2595,2702,2845,2900,2904,2907,2896,2883,2876,2872,2860,2850,2824,2813,2804,2780,2763,2751,2731,2706,2677,2628,2612,2595,2581,2563,2556,2543,2533,2536,2545,2608,2712,2827,2907,2938,2932,2924,2923,2918,2895,2874,2837,2786,2735,2706,2673,2628,2607,2584,2571,2563,2549,2529,2520,2532,2593,2782,2891,2917,2958,2967,2966,2961,2958,2937,2927,2889,2875,2838,2830,2802,2780,2761,2722,2707,2691,2648,2607,2595,2566,2552,2536,2521,2509,2489,2470,2463,2447,2443,2434,2431,2426,2422,2543,2673,2838,2904,2928,2929,2928,2910,2876,2820,2785,2758,2727,2697,2677,2642,2610,2581,2574,2567,2560,2533,2512,2497,2488,2484,2474,2469,2468,2467,2464,2464,2482,2518,2695,2864,2901,2899,2892,2883,2871,2863,2840,2805,2782,2735,2684,2650,2622,2610,2587,2580,2576,2555,2543,2524,2502,2495,2662,2924,2941,2905,2808,2744,2661,2579,2531,2506,2490,2480,2621,2917,2954,2922,2820,2736,2651,2571,2534,2496,2468,2494,2801,2989,2977,2895,2808,2704,2618,2559,2525,2502,2495,2736,2949,2949,2885,2789,2709,2661,2595,2564,2545,2521,2500,2489,2474,2472,2461,2465,2464,2509,2597,2680,2812,2919,2919,2892,2823,2756,2721,2691,2666,2630,2623,2590,2569,2556,2553,2530,2529,2511,2502,2495,2489,2486,2475,2479,2472,2492,2597,2722,2772,26
