1,2,3,4,5,6,7,8,9,10,11,12,13,14,15,16,17,18,19,20,21,22,23,24,25,26,27,28,29,30,31,32,33,34,35,36,37,38,39,40,41,42,43,44,45,46,47,48,49,50,51,52,53,54,55,56,57,58,59,60,61,62,63,64,65,66,67,68,69,70,71,72,73,74,75,76,77,78,79,80,81,82,83,84,85,86,87,88,89,90,91,92,93,94,95,96,97,98,99,100,101,102,103,104,105,106,107,108,109,110,111,112,113,114,115,116,117,118,119,120,121,122,123,124,125,126,127,128,129,130,131,132,133,134,135,136,137,138,139,140,141,142,143,144,145,146,147,148,149,150,151,152,153,154,155,156,157,158,159,160,161,162,163,164,165,166,167,168,169,170,171,172,173,174,175,176,177,178,179,180,181,182,183,184,185,186,187,188,189,190,191,192,193,194,195,196,197,198,199,200,201,202,203,204,205,206,207,208,209,210,211,212,213,214,215,216,217,218,219,220,221,222,223,224,225,226,227,228,229,230,231,232,233,234,235,236,237,238,239,240,241,242,243,244,245,246,247,248,249,250,251,252,253,254,255,256,257,258,259,260,261,262,263,264,265,266,267,268,269,270,271,272,273,274,275,276,277,278,279,280,281,282,283,284,285,286,287,288,289,290,291,292,293,294,295,296,297,298,299,300,301,302,303,304,305,306,307,308,309,310,311,312,313,314,315,316,317,318,319,320,321,322,323,324,325,326,327,328,329,330,331,332,333,334,335,336,337,338,339,340,341,342,343,344,345,346,347,348,349,350,351,352,353,354,355,356,357,358,359,360,361,362,363,364,365,366,367,368,369,370,371,372,373,374,375,376,377,378,379,380,381,382,383,384,385,386,387,388,389,390,391,392,393,394,395,396,397,398,399,400,401,402,403,404,405,406,407,408,409,410,411,412,413,414,415,416,417,418,419,420,421,422,423,424,425,426,427,428,429,430,431,432,433,434,435,436,437,438,439,440,441,442,443,444,445,446,447,448,449,450,451,452,453,454,455,456,457,458,459,460,461,462,463,464,465,466,467,468,469,470,471,472,473,474,475,476,477,478,479,480,481,482,483,484,485,486,487,488,489,490,491,492,493,494,495,496,497,498,499,500,501,502,503,504,505,506,507,508,509,510,511,512,513,514,515,516,517,518,519,520,521,522,523,524,525,526,527,528,529,530,531,532,533,534,535,536,537,538,539,540,541,542,543,544,545,546,547,548,549,550,551,552,553,554,555,556,557,558,559,560,561,562,563,564,565,566,567,568,569,570,571,572,573,574,575,576,577,578,579,580,581,582,583,584,585,586,587,588,589,590,591,592,593,594,595,596,597,598,599,600,601,602,603,604,605,606,607,608,609,610,611,612,613,614,615,616,617,618,619,620,621,622,623,624,625,626,627,628,629,630,631,632,633,634,635,636,637,638,639,640,641,642,643,644,645,646,647,648,649,650,651,652,653,654,655,656,657,658,659,660,661,662,663,664,665,666,667,668,669,670,671,672,673,674,675,676,677,678,679,680,681,682,683,684,685,686,687,688,689,690,691,692,693,694,695,696,697,698,699,700,701,702,703,704,705,706,707,708,709,710,711,712,713,714,715,716,717,718,719,720,721,722,723,724,725,726,727,728,729,730,731,732,733,734,735,736,737,738,739,740,741,742,743,744,745,746,747,748,749,750,751,752,753,754,755,756,757,758,759,760,761,762,763,764,765,766,767,768,769,770,771,772,773,774,775,776,777,778,779,780,781,782,783,784,785,786,787,788,789,790,791,792,793,794,795,796,797,798,799,800,801,802,803,804,805,806,807,808,809,810,811,812,813,814,815,816,817,818,819,820,821,822,823,824,825,826,827,828,829,830,831,832,833,834,835,836,837,838,839,840,841,842,843,844,845,846,847,848,849,850,851,852,853,854,855,856,857,858,859,860,861,862,863,864,865,866,867,868,869,870,871,872,873,874,875,876,877,878,879,880,881,882,883,884,885,886,887,888,889,890,891,892,893,894,895,896,897,898,899,900,901,902,903,904,905,906,907,908,909,910,911,912,913,914,915,916,917,918,919,920,921,922,923,924,925,926,927,928,929,930,931,932,933,934,935,936,937,938,939,940,941,942,943,944,945,946,947,948,949,950,951,952,953,954,955,956,957,958,959,960,961,962,963,964,965,966,967,968,969,970,971,972,973,974,975,976,977,978,979,980,981,982,983,984,985,986,987,988,989,990,991,992,993,994,995,996,997,998,999,1000,1001,1002,1003,1004,1005,1006,1007,1008,1009,1010,1011,1012,1013,1014,1015,1016,1017,1018,1019,1020,1021,1022,1023,1024,1025,1026,1027,1028,1029,1030,1031,1032,1033,1034,1035,1036,1037,1038,1039,1040,1041,1042,1043,1044,1045,1046,1047,1048,1049,1050,1051,1052,1053,1054,1055,1056,1057,1058,1059,1060,1061,1062,1063,1064,1065,1066,1067,1068,1069,1070,1071,1072,1073,1074,1075,1076,1077,1078,1079,1080,1081,1082,1083,1084,1085,1086,1087,1088,1089,1090,1091,1092,1093,1094,1095,1096,1097,1098,1099,1100,1101,1102,1103,1104,1105,1106,1107,1108,1109,1110,1111,1112,1113,1114,1115,1116,1117,1118,1119,1120,1121,1122,1123,1124,1125,1126,1127,1128,1129,1130,1131,1132,1133,1134,1135,1136,1137,1138,1139,1140,1141,1142,1143,1144,1145,1146,1147,1148,1149,1150,1151,1152,1153,1154,1155,1156,1157,1158,1159,1160,1161,1162,1163,1164,1165,1166,1167,1168,1169,1170,1171,1172,1173,1174,1175,1176,1177,1178,1179,1180,1181,1182,1183,1184,1185,1186,1187,1188,1189,1190,1191,1192,1193,1194,1195,1196,1197,1198,1199,1200,1201,1202,1203,1204,1205,1206,1207,1208,1209,1210,1211,1212,1213,1214,1215,1216,1217,1218,1219,1220,1221,1222,1223,1224,1225,1226,1227,1228,1229,1230,1231,1232,1233,1234,1235,1236,1237,1238,1239,1240,1241,1242,1243,1244,1245,1246,1247,1248,1249,1250,1251,1252,1253,1254,1255,1256,1257,1258,1259,1260,1261,1262,1263,1264,1265,1266,1267,1268,1269,1270,1271,1272,1273,1274,1275,1276,1277,1278,1279,1280,1281,1282,1283,1284,1285,1286,1287,1288,1289,1290,1291,1292,1293,1294,1295,1296,1297,1298,1299,1300,1301,1302,1303,1304,1305,1306,1307,1308,1309,1310,1311,1312,1313,1314,1315,1316,1317,1318,1319,1320,1321,1322,1323,1324,1325,1326,1327,1328,1329,1330,1331,1332,1333,1334,1335,1336,1337,1338,1339,1340,1341,1342,1343,1344,1345,1346,1347,1348,1349,1350,1351,1352,1353,1354,1355,1356,1357,1358,1359,1360,1361,1362,1363,1364,1365,1366,1367,1368,1369,1370,1371,1372,1373,1374,1375,1376,1377,1378,1379,1380,1381,1382,1383,1384,1385,1386,1387,1388,1389,1390,1391,1392,1393,1394,1395,1396,1397,1398,1399,1400,1401,1402,1403,1404,1405,1406,1407,1408,1409,1410,1411,1412,1413,1414,1415,1416,1417,1418,1419,1420,1421,1422,1423,1424,1425,1426,1427,1428,1429,1430,1431,1432,1433,1434,1435,1436,1437,1438,1439,1440,1441,1442,1443,1444,1445,1446,1447,1448,1449,1450,1451,1452,1453,1454,1455,1456,1457,1458,1459,1460,1461,1462,1463,1464,1465,1466,1467,1468,1469,1470,1471,1472,1473,1474,1475,1476,1477,1478,1479,1480,1481,1482,1483,1484,1485,1486,1487,1488,1489,1490,1491,1492,1493,1494,1495,1496,1497,1498,1499,1500,1501,1502,1503,1504,1505,1506,1507,1508,1509,1510,1511,1512,1513,1514,1515,1516,1517,1518,1519,1520,1521,1522,1523,1524,1525,1526,1527,1528,1529,1530,1531,1532,1533,1534,1535,1536,1537,1538,1539,1540,1541,1542,1543,1544,1545,1546,1547,1548,1549,1550,1551,1552,1553,1554,1555,1556,1557,1558,1559,1560,1561,1562,1563,1564,1565,1566,1567,1568,1569,1570,1571,1572,1573,1574,1575,1576,1577,1578,1579,1580,1581,1582,1583,1584,1585,1586,1587,1588,1589,1590,1591,1592,1593,1594,1595,1596,1597,1598,1599,1600,1601,1602,1603,1604,1605,1606,1607,1608,1609,1610,1611,1612,1613,1614,1615,1616,1617,1618,1619,1620,1621,1622,1623,1624,1625,1626,1627,1628,1629,1630,1631,1632,1633,1634,1635,1636,1637,1638,1639,1640,1641,1642,1643,1644,1645,1646,1647,1648,1649,1650,1651,1652,1653,1654,1655,1656,1657,1658,1659,1660,1661,1662,1663,1664,1665,1666,1667,1668,1669,1670,1671,1672,1673,1674,1675,1676,1677,1678,1679,1680,1681,1682,1683,1684,1685,1686,1687,1688,1689,1690,1691,1692,1693,1694,1695,1696,1697,1698,1699,1700,1701,1702,1703,1704,1705,1706,1707,1708,1709,1710,1711,1712,1713,1714,1715,1716,1717,1718,1719,1720,1721,1722,1723,1724,1725,1726,1727,1728,1729,1730,1731,1732,1733,1734,1735,1736,1737,1738,1739,1740,1741,1742,1743,1744,1745,1746,1747,1748,1749,1750,1751,1752,1753,1754,1755,1756,1757,1758,1759,1760,1761,1762,1763,1764,1765,1766,1767,1768,1769,1770,1771,1772,1773,1774,1775,1776,1777,1778,1779,1780,1781,1782,1783,1784,1785,1786,1787,1788,1789,1790,1791,1792,1793,1794,1795,1796,1797,1798,1799,1800,stress_score
2617,2576,2549,2492,2467,2431,2402,2396,2363,2350,2343,2347,2340,2342,2349,2349,2357,2356,2361,2361,2375,2457,2518,2755,2858,3226,3353,3332,3258,3119,3034,2856,2757,2737,2673,2652,2639,2639,2606,2568,2544,2530,2487,2446,2386,2377,2335,2332,2308,2311,2307,2301,2311,2317,2319,2328,2324,2336,2335,2343,2338,2346,2345,2340,2349,2350,2389,2434,2631,2730,2827,3151,3319,3417,3411,3307,3170,3060,3018,2989,2882,2794,2763,2746,2694,2690,2673,2658,2653,2628,2607,2595,2570,2515,2452,2440,2418,2387,2358,2349,2350,2346,2354,2354,2361,2357,2364,2359,2363,2358,2365,2360,2370,2366,2377,2402,2434,2468,2676,2964,3072,3162,3398,3414,3338,3201,3147,3106,2980,2916,2862,2844,2779,2737,2737,2715,2691,2670,2660,2596,2581,2554,2503,2480,2453,2446,2430,2414,2414,2399,2405,2399,2409,2413,2411,2426,2457,2577,2716,2970,3170,3252,3238,3223,3107,3024,2989,2944,2914,2814,2793,2744,2717,2704,2659,2659,2642,2644,2617,2612,2593,2549,2486,2474,2422,2416,2381,2380,2362,2361,2371,2368,2385,2383,2397,2392,2407,2412,2510,2699,2788,2869,3178,3275,3258,3162,3060,2994,2875,2785,2723,2701,2693,2662,2649,2634,2630,2582,2571,2547,2500,2468,2447,2440,2421,2400,2389,2383,2376,2376,2378,2392,2389,2402,2400,2407,2401,2405,2397,2402,2393,2420,2438,2480,2660,2750,2934,3021,3114,3296,3341,3320,3301,3196,3169,3130,3048,2955,2931,2896,2822,2752,2736,2716,2680,2673,2652,2609,2552,2542,2521,2473,2469,2443,2439,2432,2436,2430,2438,2433,2440,2434,2438,2432,2438,2432,2440,2435,2447,2453,2456,2466,2474,2484,2490,2585,2705,2953,3352,3412,3406,3378,3277,3164,3138,3104,3051,3004,2944,2919,2877,2861,2839,2824,2801,2793,2735,2720,2695,2653,2639,2614,2603,2554,2549,2529,2516,2515,2495,2493,2487,2491,2485,2490,2488,2477,2472,2473,2541,2697,2777,3016,3098,3259,3291,3278,3260,3162,3135,3039,2983,2929,2857,2788,2755,2741,2725,2688,2679,2658,2612,2551,2539,2517,2489,2465,2461,2446,2436,2422,2426,2426,2420,2426,2422,2426,2420,2426,2422,2430,2425,2431,2434,2449,2461,2525,2639,2890,2975,3147,3281,3369,3360,3299,3199,3174,3140,3065,3011,2979,2958,2925,2860,2836,2824,2783,2757,2739,2731,2699,2662,2622,2597,2583,2526,2492,2476,2471,2448,2449,2439,2445,2442,2448,2444,2451,2444,2448,2442,2446,2441,2441,2448,2452,2475,2505,2537,2721,3066,3278,3366,3346,3316,3224,3185,3103,3072,3003,2974,2956,2909,2884,2842,2826,2821,2802,2786,2753,2732,2719,2654,2603,2580,2569,2539,2516,2485,2484,2473,2467,2459,2456,2453,2455,2447,2443,2447,2460,2486,2511,2606,2674,2892,2974,3039,3150,3207,3219,3202,3154,3040,2954,2876,2821,2745,2690,2687,2659,2655,2611,2600,2540,2527,2505,2461,2418,2412,2399,2386,2373,2377,2374,2380,2382,2379,2384,2382,2387,2382,2387,2383,2383,2389,2385,2394,2391,2400,2397,2411,2457,2544,2771,3048,3142,3218,3374,3386,3391,3328,3302,3242,3209,3187,3135,3081,2988,2961,2900,2847,2785,2775,2749,2722,2670,2656,2591,2575,2550,2502,2449,2434,2419,2405,2408,2404,2409,2406,2411,2406,2407,2406,2397,2399,2400,2397,2407,2413,2421,2437,2445,2463,2486,2597,2665,2907,3005,3091,3353,3383,3293,3219,3128,3096,3031,2956,2938,2910,2869,2836,2809,2786,2751,2731,2679,2654,2600,2577,2533,2485,2472,2454,2438,2441,2434,2439,2434,2439,2433,2434,2430,2439,2491,2536,2712,2791,2948,3085,3196,3210,3193,3166,3142,3109,2992,2917,2887,2811,2761,2734,2719,2698,2657,2639,2600,2558,2503,2462,2439,2409,2397,2392,2386,2389,2395,2393,2397,2392,2397,2392,2399,2401,2405,2405,2453,2531,2658,2734,3013,3250,3341,3361,3312,3276,3247,3210,3129,3098,3026,2994,2912,2879,2812,2789,2763,2738,2700,2670,2619,2556,2509,2490,2458,2445,2442,2423,2422,2428,2429,2437,2443,2439,2443,2444,2439,2444,2440,2444,2452,2473,2495,2648,2717,2885,2980,3063,3274,3340,3312,3221,3119,3096,3066,2997,2949,2874,2821,2803,2795,2762,2740,2712,2700,2640,2549,2496,2478,2457,2450,2450,2452,2446,2442,2446,2472,2503,2536,2716,3073,3191,3196,3159,3128,3043,3010,2934,2826,2774,2727,2676,2670,2658,2643,2631,2627,2584,2539,2517,2505,2454,2423,2406,2385,2381,2377,2381,2379,2382,2387,2384,2390,2389,2390,2390,2397,2436,2516,2728,2809,3072,3247,3280,3288,3252,3193,3099,3026,2996,2974,2886,2860,2807,2779,2763,2717,2710,2694,2680,2673,2628,2593,2555,2539,2484,2456,2432,2410,2392,2391,2390,2395,2396,2401,2399,2401,2398,2400,2399,2393,2398,2396,2396,2401,2404,2411,2411,2418,2426,2434,2442,2443,2466,2479,2596,2656,2818,3010,3111,3353,3441,3457,3446,3347,3243,3150,3076,2991,2967,2890,2852,2825,2817,2794,2768,2749,2701,2662,2622,2598,2549,2519,2503,2495,2481,2455,2454,2454,2454,2458,2463,2458,2461,2456,2452,2454,2481,2732,3155,3327,3290,3181,3017,2899,2792,2762,2712,2657,2563,2513,2482,2469,2452,2443,2435,2433,2431,2437,2434,2438,2439,2437,2433,2477,2608,2679,2841,3015,3225,3272,3311,3289,3191,3158,3089,2971,2917,2815,2790,2744,2698,2653,2584,2497,2451,2412,2396,2404,2412,2412,2417,2415,2419,2417,2422,2421,2425,2439,2462,2587,2659,2922,3023,3280,3385,3411,3386,3285,3244,3211,3113,3004,2923,2869,2803,2766,2751,2718,2700,2688,2629,2590,2550,2502,2483,2473,2452,2438,2424,2418,2418,2417,2418,2420,2424,2426,2426,2421,2424,2423,2422,2418,2419,2421,2429,2428,2437,2445,2467,2487,2569,2634,2881,2982,3076,3252,3376,3425,3404,3295,3248,3208,3094,3011,2982,2960,2913,2888,2833,2791,2772,2724,2710,2674,2650,2632,2567,2550,2495,2483,2467,2448,2430,2420,2415,2417,2418,2423,2432,2431,2429,2424,2457,2482,2646,2719,2986,3070,3270,3300,3306,3249,3133,3065,3036,2948,2923,2893,2840,2817,2790,2771,2720,2666,2627,2530,2448,2412,2388,2386,2396,2399,2402,2397,2398,2397,2397,2406,2410,2417,2428,2494,2677,2760,2859,3260,3448,3477,3446,3335,3290,3253,3122,3091,3008,2917,2892,2865,2824,2794,2771,2763,2749,2709,2649,2630,2606,2525,2479,2463,2435,2425,2414,2409,2412,2410,2412,2416,2415,2421,2419,2418,2420,2417,2417,2414,2413,2416,2415,2418,2421,2431,2430,2436,2445,2475,2598,2670,2939,3239,3390,3474,3382,3344,3222,3189,3153,3092,3066,2974,2947,2915,2864,2845,2794,2786,2772,2741,2724,2674,2651,2610,2568,2553,2501,2468,2442,2432,2423,2427,2427,2424,2428,2424,2427,2423,2424,2419,2420,2417,2414,2411,2450,2582,2735,3015,3252,3339,3343,3172,3014,2921,2779,2702,2663,2598,2496,2401,2374,2367,2365,2374,2381,2391,2393,2394,2390,2390,2387,2387,2384,2389,2387,2391,2394,2393,2397,2398,2443,2582,2660,2743,2941,3143,3377,3417,3437,3382,3306,3265,3164,3102,3039,3003,2903,2810,2751,2712,2705,2666,2618,2596,2579,2517,2468,2450,2440,2410,2407,2392,2394,2394,2392,2396,2395,2401,2406,2402,2404,2398,2401,2397,2403,2402,2413,2425,2424,2437,2513,2620,2871,3173,3257,3431,3446,3407,3366,3283,3170,3106,3073,2992,2959,2933,2850,2781,2760,2733,2686,2670,2605,2587,2563,2525,2511,2465,2458,2447,2432,2420,2423,2421,2427,2431,2428,2432,2430,2433,2432,2428,2430,2427,2426,2419,2431,2503,2557,2776,3058,3143,3223,3354,3335,3267,3146,3047,3015,2989,2900,2817,2770,2710,2698,2677,2654,2623,2562,2544,2504,2448,2412,2399,2381,2369,2371,2367,2369,2374,2372,2381,2383,2381,2382,2377,2379,2376,2377,2384,2416,2445,2624,2702,2796,2986,3074,3283,3316,3337,3298,3200,3161,3132,3042,3018,2988,2907,2875,2791,2764,2697,2670,2657,2624,2593,2572,2559,2538,2491,2462,2439,2426,2409,2406,2398,2398,2391,2395,2394,2398,2401,2406,2403,2406,2404,2408,2405,2408,2409,2417,2420,2432,2475,2511,2682,2766,3038,3326,3378,3335,3221,3186,3147,3062,3033,2940,2877,2854,2797,2774,2739,2696,2635,2581,2520,2504,2482,2473,2473,2462,2466,2467,2465,2471,2474,2481,2478,2482,2472,2473,2474,2491,2586,2646,2710,2865,3107,3256,3276,3192,3162,3123,3033,2947,2924,2894,2840,2789,2735,2717,2697,2677,2643,2601,2567,2514,2461,2440,2423,2416,2423,2426,2428,2428,2433,2431,2436,2434,2435,2439,2440,2454,2534,2592,2816,2913,3182,3261,3317,3394,3381,3298,3257,3153,3118,3035,3004,2920,2829,2769,2725,2706,2679,2631,2618,2559,2511,2492,2481,2457,2439,2417,2412,2417,2419,2426,2428,2436,2433,2438,2434,2440,2439,2444,2449,2444,2450,2452,2492,2579,2645,2792,2958,3165,3213,3238,3162,3121,3090,2993,2945,2903,2888,2847,2822,2772,2754,2748,2722,2723,2701,2697,2655,2645,2624,2578,2527,2519,2502,2477,2453,2454,2450,2453,2463,2460,2465,2460,2463,2457,2473,2483,2603,2745,3020,3293,3352,3404,3429,3341,3292,3172,3064,2982,2895,2830,2795,2757,2716,2707,2650,2608,2551,2461,2433,2410,2410,2402,2401,2402,2412,2409,2411,2421,2416,2415,2420,2419,2414,2419,2420,2423,2605,2863,3185,3276,3364,3497,3509,3432,3346,3227,3117,3092,2994,2909,2856,2781,2762,2733,2685,2636,2571,2518,2455,2437,2414,2396,2395,2391,2395,2402,2398,2407,2403,2410,2405,2412,2411,2422,2434,2562,2990,3315,3550,3476,3319,3275,3224,3143,3079,3004,2975,2930,2892,2856,2816,2810,2759,2719,2626,2609,2540,2494,2476,2470,2451,2438,2430,2422,2425,2419,2426,2420,2420,2425,2418,2419,2415,2413,2468,2652,2732,3041,3236,3310,3378,3416,3438,3406,3287,3200,3079,2951,2791,2750,2690,2651,2541,2485,2429,2399,2385,2384,2364,2365,2361,2372,2366,2366,2369,2378,2407,2428,2523,2679,3002,3315,3404,3509,3524,3530,3507,3437,3398,3345,3305,3177,3018,2918,2797,2746,2714,2694,2683,2646,2602,2574,2529,2487,2437,2417,2387,2371,2360,2361,2352,2358,2365,2366,2373,2375,2374,2368,2371,2364,2369,2364,2367,2379,2381,2390,2392,2427,2510,2752,2851,3197,3298,3395,3549,3521,3430,3264,3088,3058,2961,2889,2846,2799,2776,2761,2755,6
2430,2495,2621,2789,2888,2966,2963,2931,2908,2861,2819,2802,2802,2799,2803,2798,2798,2775,2768,2727,2716,2689,2664,2629,2625,2614,2606,2600,2600,2596,2601,2601,2589,2583,2578,2607,2660,2778,2920,2955,3025,3025,2997,2936,2885,2865,2833,2808,2808,2803,2802,2793,2756,2702,2641,2610,2584,2573,2564,2562,2562,2611,2712,2846,2923,2973,2980,2984,2966,2932,2870,2855,2809,2791,2776,2772,2769,2772,2771,2771,2760,2748,2741,2685,2638,2627,2590,2583,2568,2555,2540,2534,2530,2527,2523,2524,2521,2516,2505,2518,2586,2718,2767,2915,2949,2992,3001,2997,2963,2945,2930,2877,2859,2850,2845,2823,2818,2815,2815,2801,2776,2732,2686,2639,2627,2592,2585,2575,2559,2544,2540,2528,2518,2509,2498,2487,2482,2532,2564,2707,2762,2927,3022,3035,3031,2988,2973,2929,2918,2889,2874,2856,2830,2807,2730,2652,2583,2533,2507,2488,2476,2466,2461,2459,2455,2447,2437,2435,2431,2420,2425,2436,2454,2481,2608,2887,2996,2977,2924,2874,2838,2815,2804,2795,2782,2755,2690,2617,2583,2547,2536,2529,2528,2525,2520,2515,2512,2510,2501,2499,2487,2483,2486,2496,2541,2728,2909,3046,3081,3050,3029,2960,2940,2891,2879,2869,2854,2850,2851,2850,2835,2804,2788,2737,2718,2685,2654,2642,2619,2601,2594,2577,2560,2555,2545,2536,2535,2523,2529,2544,2630,2724,2834,2891,3054,3068,3058,3040,2993,2893,2839,2804,2799,2795,2799,2797,2796,2774,2746,2696,2658,2621,2572,2560,2526,2506,2496,2487,2485,2482,2480,2479,2519,2581,2623,2790,2959,3006,3074,3053,2981,2906,2879,2824,2809,2781,2774,2771,2765,2762,2753,2702,2648,2625,2608,2550,2509,2494,2470,2450,2449,2443,2440,2436,2438,2429,2430,2425,2435,2504,2657,2851,3016,3071,3069,3052,2945,2890,2867,2790,2773,2752,2739,2740,2735,2726,2679,2659,2608,2515,2504,2466,2459,2436,2428,2422,2417,2415,2413,2404,2405,2406,2410,2429,2530,2586,2772,2959,3049,3038,3014,2906,2836,2771,2739,2736,2718,2717,2693,2670,2658,2625,2586,2527,2512,2465,2436,2422,2405,2399,2402,2397,2399,2396,2391,2451,2577,2636,2868,2968,2984,2961,2948,2883,2867,2815,2792,2782,2782,2777,2773,2776,2748,2732,2695,2665,2619,2577,2560,2553,2541,2544,2539,2536,2536,2530,2546,2625,2659,2799,2919,2980,2977,2945,2881,2866,2812,2804,2770,2758,2756,2750,2744,2726,2710,2683,2624,2615,2597,2571,2557,2555,2535,2533,2527,2517,2519,2601,2727,2853,2941,2946,2953,2916,2905,2840,2798,2782,2767,2751,2754,2740,2724,2708,2701,2643,2624,2589,2574,2551,2541,2527,2519,2523,2520,2511,2500,2533,2552,2667,2708,2760,2890,2965,2966,2969,2929,2872,2845,2815,2799,2788,2779,2770,2758,2718,2699,2661,2615,2608,2573,2557,2539,2535,2527,2526,2513,2515,2507,2496,2492,2478,2483,2612,2753,2981,2989,2915,2885,2870,2851,2818,2806,2794,2770,2766,2729,2721,2673,2663,2609,2592,2555,2542,2532,2518,2516,2507,2494,2489,2481,2477,2463,2468,2463,2501,2522,2648,2803,2948,3014,2979,2937,2907,2884,2866,2844,2832,2836,2827,2800,2778,2741,2712,2667,2638,2625,2609,2591,2589,2580,2582,2570,2559,2567,2634,2752,2904,3046,3053,3021,3008,2987,2937,2888,2866,2839,2838,2834,2832,2806,2798,2739,2686,2674,2620,2605,2599,2567,2552,2542,2542,2527,2521,2515,2517,2532,2618,2656,2917,2956,3034,3023,3012,2934,2875,2836,2821,2797,2778,2770,2732,2681,2667,2645,2596,2548,2538,2504,2479,2478,2464,2458,2447,2436,2424,2470,2590,2902,3061,3014,2906,2854,2804,2783,2755,2685,2612,2565,2512,2484,2469,2458,2458,2453,2453,2445,2440,2435,2423,2414,2411,2447,2620,2872,2929,3032,3044,3014,2993,2915,2830,2815,2778,2771,2759,2751,2750,2741,2728,2717,2709,2666,2651,2598,2583,2527,2495,2489,2481,2470,2462,2462,2460,2462,2460,2462,2461,2459,2468,2484,2572,2674,2796,2977,3089,3080,3013,2907,2887,2837,2828,2811,2813,2815,2819,2812,2794,2782,2769,2702,2651,2637,2598,2589,2579,2561,2550,2547,2546,2546,2544,2557,2571,2665,2710,2876,2933,3073,3099,3114,3058,2975,2897,2876,2827,2804,2800,2800,2784,2746,2691,2633,2580,2566,2552,2519,2503,2489,2483,2478,2480,2489,2563,2712,2836,3051,3109,3106,3053,3000,2922,2859,2820,2810,2803,2791,2778,2746,2691,2649,2587,2520,2485,2467,2461,2460,2452,2450,2447,2445,2442,2455,2576,2824,3093,3089,2983,2908,2842,2814,2807,2795,2771,2762,2746,2644,2569,2466,2421,2396,2387,2378,2370,2369,2362,2357,2353,2417,2556,2749,2866,2969,2973,2910,2839,2767,2731,2725,2707,2707,2695,2693,2679,2656,2608,2594,2540,2527,2477,2465,2459,2446,2431,2426,2427,2423,2418,2420,2413,2409,2409,2406,2418,2430,2457,2580,2764,2825,2888,3012,3024,3008,2914,2850,2836,2819,2796,2782,2777,2775,2767,2745,2668,2623,2604,2569,2554,2528,2517,2505,2499,2502,2509,2525,2533,2539,2537,2552,2562,2654,2750,2919,3067,3115,3099,3037,3007,2985,2911,2869,2855,2852,2838,2845,2841,2844,2821,2785,2750,2728,2689,2676,2655,2614,2574,2554,2545,2529,2530,2521,2516,2555,2708,2871,2929,3067,3061,3049,2960,2916,2859,2832,2814,2816,2808,2809,2801,2776,2673,2613,2550,2505,2497,2476,2464,2457,2538,2679,2918,3041,3055,3009,2964,2894,2830,2824,2794,2783,2778,2748,2730,2688,2590,2556,2503,2497,2468,2466,2456,2441,2438,2431,2434,2422,2420,2415,2404,2457,2497,2646,2777,3005,3075,3065,2987,2919,2874,2832,2827,2799,2800,2777,2775,2762,2730,2708,2633,2580,2558,2546,2499,2472,2459,2448,2438,2429,2431,2422,2427,2420,2418,2423,2417,2418,2429,2439,2548,2793,2855,3033,3100,3106,3091,3036,3004,2982,2905,2890,2838,2831,2802,2802,2786,2786,2776,2751,2700,2687,2664,2611,2558,2530,2504,2492,2480,2465,2469,2463,2466,2461,2466,2461,2464,2458,2456,2450,2461,2496,2521,2673,2865,2935,3078,3106,3064,2980,2892,2875,2821,2806,2812,2813,2818,2799,2793,2741,2684,2615,2565,2545,2537,2499,2487,2482,2477,2486,2482,2490,2484,2488,2543,2620,2780,2847,3008,3088,3018,2994,2897,2875,2846,2797,2768,2767,2779,2771,2770,2727,2716,2649,2605,2551,2500,2494,2463,2463,2454,2449,2452,2457,2455,2466,2471,2492,2593,2768,2829,2896,3049,3083,3097,3086,3005,2978,2885,2795,2768,2760,2730,2652,2584,2530,2501,2464,2448,2441,2440,2436,2441,2438,2444,2438,2436,2442,2497,2648,2855,2994,3158,3151,3070,3042,2953,2896,2880,2872,2855,2848,2848,2840,2821,2785,2703,2611,2536,2492,2462,2461,2446,2439,2432,2428,2423,2410,2411,2416,2502,2672,2747,2819,3081,3124,3144,3136,3048,3018,2917,2851,2832,2822,2792,2780,2781,2761,2707,2692,2626,2566,2510,2474,2461,2435,2432,2428,2430,2427,2425,2426,2416,2410,2403,2402,2400,2464,2502,2557,2761,2991,3052,3165,3169,3123,2986,2948,2919,2867,2813,2789,2780,2779,2768,2731,2697,2636,2554,2535,2491,2478,2444,2435,2433,2433,2437,2436,2437,2435,2431,2428,2433,2491,2535,2585,2789,3010,3160,3177,3160,3062,3024,2913,2883,2816,2803,2784,2786,2796,2801,2799,2793,2752,2734,2712,2648,2586,2568,2551,2514,2492,2487,2483,2479,2479,2483,2486,2487,2485,2486,2489,2540,2574,2621,2802,3012,3072,3183,3189,3121,2977,2944,2841,2807,2803,2807,2808,2755,2643,2564,2516,2495,2490,2486,2479,2471,2478,2492,2514,2644,2845,2917,3104,3181,3168,3053,3017,2923,2857,2826,2802,2798,2791,2787,2783,2750,2674,2653,2586,2567,2514,2501,2467,2449,2442,2434,2433,2432,2430,2428,2422,2419,2425,2439,2463,2597,2662,2884,3027,3160,3167,3150,3064,3034,2947,2901,2851,2813,2806,2796,2767,2734,2716,2659,2592,2573,2550,2500,2461,2453,2443,2422,2417,2412,2413,2407,2407,2396,2395,2395,2410,2503,2559,2764,2843,3044,3094,3150,3148,3131,3059,2975,2954,2929,2876,2824,2811,2783,2757,2742,2696,2673,2614,2590,2536,2517,2480,2460,2438,2430,2418,2411,2401,2390,2386,2379,2384,2390,2475,2521,2721,2944,3012,3132,3144,3093,3063,2982,2911,2897,2856,2850,2840,2829,2814,2804,2770,2699,2677,2624,2554,2548,2523,2510,2507,2502,2505,2496,2494,2489,2491,2481,2494,2507,2534,2654,2903,2969,3095,3119,3122,3063,2987,2957,2870,2839,2838,2827,2822,2810,2805,2758,2701,2675,2658,2597,2558,2521,2501,2494,2483,2482,2476,2474,2468,2462,2488,2507,2633,2810,2878,3031,3096,3063,2995,2918,2879,2838,2804,2788,2790,2782,2760,2711,2674,2617,2545,2526,2517,2482,2466,2458,2446,2449,2443,2444,2435,2437,2428,2429,2417,2420,2433,2532,2580,2644,2934,3104,3157,3152,3127,3057,3008,2943,2906,2857,2857,2835,2816,2808,2789,2712,2649,2623,2570,2540,2499,2471,2472,2457,2460,2447,2450,2439,2419,2407,2421,2644,2939,3144,3144,3042,2946,2885,2847,2844,2817,2796,2777,2767,2707,2646,2617,2557,2531,2486,2445,2425,2415,2408,2396,2399,2385,2374,2368,2359,2391,2427,2576,2649,2864,2938,2993,3099,3078,3061,3029,2942,2908,2840,2808,2775,2767,2754,2752,2710,2662,2622,2597,2547,2476,2460,2445,2448,2442,2447,2444,2448,2446,2438,2444,2478,2513,2654,2719,2912,2975,3082,3099,3064,3043,2947,2863,2795,2765,2754,2749,2749,2736,2690,2611,2555,2500,2491,2474,2451,2440,2440,2425,2429,2424,2430,2429,2436,2429,2443,2509,2556,2724,2924,2977,3027,3086,3089,3071,2969,2847,2799,2776,2772,2728,2657,2603,2546,2534,2494,2466,2463,2463,2462,2468,2468,2476,2473,2476,2475,2525,2650,2716,2926,3002,3162,3196,3200,3131,3033,2959,2937,2901,2890,2880,2878,2869,2834,2788,2765,2684,2668,2616,2570,2545,2545,2535,2533,2531,2524,2515,2515,2503,2504,2508,2527,2631,2689,2750,2968,3147,3188,3208,3175,3083,3047,2938,2893,2880,2865,2859,2856,2826,2779,2739,2670,2614,2583,2545,2539,2526,2518,2511,2514,2512,2510,2513,2509,2508,2503,2494,2552,2698,2903,2976,3146,3198,3179,3051,3014,2900,2848,2846,2845,2851,2834,2782,2763,2737,2668,2622,2562,2525,2513,2508,2493,2491,2495,2493,2494,2490,2490,2492,2562,2600,2654,16
2752,2779,2780,2755,2651,2594,2572,2530,2495,2487,2536,2665,2851,3013,3091,3087,2988,2873,2832,2751,2727,2727,2761,2766,2777,2764,2756,2717,2691,2670,2585,2515,2491,2478,2426,2402,2404,2399,2414,2492,2646,2822,2880,2978,2987,2979,2953,2859,2746,2678,2662,2657,2710,2722,2723,2683,2624,2596,2577,2512,2499,2471,2456,2437,2428,2421,2418,2432,2523,2617,2781,2840,2972,2949,2864,2750,2676,2659,2658,2663,2708,2729,2735,2726,2666,2604,2535,2503,2470,2442,2436,2440,2458,2548,2648,2830,2937,3008,3020,2880,2838,2744,2689,2689,2700,2716,2745,2752,2711,2654,2628,2568,2545,2505,2483,2450,2430,2407,2413,2417,2509,2552,2736,2860,2987,3012,2994,2913,2872,2841,2741,2699,2698,2721,2747,2768,2738,2683,2605,2543,2486,2458,2434,2426,2422,2424,2438,2508,2558,2602,2787,2955,3001,3025,3041,3017,2958,2925,2880,2773,2700,2696,2687,2726,2754,2769,2767,2737,2724,2648,2577,2547,2505,2462,2423,2422,2419,2481,2528,2764,2824,2998,3060,3062,3041,2945,2803,2767,2725,2663,2660,2679,2691,2746,2755,2755,2738,2683,2653,2576,2544,2478,2452,2407,2391,2392,2425,2562,2617,2824,2882,3021,3034,3044,2948,2710,2629,2647,2718,2748,2752,2712,2646,2612,2587,2499,2478,2451,2413,2409,2485,2525,2708,2770,2953,2989,3037,2962,2828,2730,2624,2607,2649,2677,2724,2709,2581,2481,2459,2562,2732,2804,2863,3021,3058,3050,2992,2853,2728,2690,2648,2696,2740,2733,2690,2610,2587,2491,2472,2561,2603,2791,2849,3007,3030,3047,3021,2871,2758,2683,2678,2721,2733,2691,2628,2545,2479,2453,2479,2601,2651,2827,2949,2975,2979,2944,2834,2726,2671,2630,2629,2657,2660,2669,2653,2602,2559,2497,2414,2420,2504,2544,2598,2819,2904,2927,2946,2902,2869,2730,2661,2643,2648,2681,2685,2689,2641,2618,2561,2538,2486,2462,2462,2485,2689,2847,2938,2940,2918,2861,2765,2686,2671,2696,2714,2693,2628,2549,2484,2523,2699,2946,3002,2906,2761,2717,2721,2731,2725,2690,2669,2654,2577,2513,2477,2483,2496,2523,2642,2810,2951,3013,2979,2957,2861,2832,2801,2728,2720,2720,2730,2714,2699,2628,2533,2463,2441,2415,2450,2602,2900,2955,2897,2808,2756,2737,2699,2698,2702,2705,2712,2717,2652,2560,2511,2466,2449,2440,2436,2438,2506,2539,2669,2800,2837,2863,2887,2837,2813,2785,2710,2690,2677,2660,2664,2688,2698,2711,2710,2683,2669,2617,2567,2552,2540,2507,2500,2492,2473,2467,2468,2510,2611,2655,2700,2838,2920,2929,2928,2885,2808,2782,2739,2711,2700,2708,2716,2729,2733,2736,2720,2683,2667,2619,2579,2550,2529,2525,2510,2509,2502,2506,2546,2575,2693,2741,2877,2914,2966,2966,2921,2871,2798,2750,2742,2737,2750,2769,2769,2745,2700,2681,2628,2612,2584,2572,2561,2538,2532,2523,2520,2516,2507,2500,2498,2508,2543,2608,2650,2791,2913,2939,2957,2848,2821,2749,2734,2712,2726,2736,2746,2766,2746,2735,2669,2635,2618,2605,2570,2547,2541,2538,2524,2516,2519,2563,2624,2751,2880,2911,2953,2915,2891,2863,2778,2752,2704,2696,2705,2712,2746,2753,2757,2749,2714,2696,2648,2630,2591,2578,2555,2547,2533,2527,2527,2542,2655,2699,2836,2880,2968,2981,2938,2793,2731,2719,2722,2756,2766,2774,2779,2745,2711,2655,2589,2544,2525,2524,2568,2636,2833,2971,3028,2975,2887,2798,2742,2756,2784,2784,2746,2731,2675,2658,2605,2592,2576,2552,2543,2519,2519,2550,2654,2796,2849,2936,3002,3006,2996,2901,2759,2718,2732,2764,2769,2772,2770,2759,2716,2694,2676,2572,2528,2512,2485,2485,2502,2593,2688,2848,2961,2988,2990,2931,2837,2800,2722,2702,2692,2694,2729,2736,2755,2748,2717,2659,2640,2616,2560,2540,2527,2487,2514,2545,2671,2839,2887,2936,3008,2993,2966,2939,2830,2799,2720,2698,2708,2734,2748,2743,2697,2681,2614,2595,2517,2477,2503,2611,2666,2842,2997,3024,3049,3031,2979,2907,2805,2730,2721,2710,2719,2722,2731,2734,2733,2694,2679,2611,2547,2505,2452,2440,2460,2566,2742,2801,2866,2997,3024,3030,2967,2860,2819,2730,2687,2703,2685,2581,2537,2422,2397,2374,2385,2509,2619,2803,2954,2962,2870,2794,2700,2664,2666,2681,2700,2677,2666,2604,2586,2513,2497,2440,2429,2410,2376,2386,2427,2503,2549,2730,2891,2976,2946,2773,2674,2659,2642,2677,2679,2684,2663,2643,2629,2562,2482,2470,2422,2397,2408,2473,2521,2566,2750,2807,2961,2985,3004,2924,2893,2850,2714,2677,2673,2664,2683,2686,2699,2702,2658,2643,2573,2513,2487,2474,2426,2406,2400,2410,2477,2634,2692,2822,3018,3047,2974,2901,2868,2762,2694,2699,2706,2712,2689,2661,2647,2578,2520,2498,2487,2439,2414,2400,2386,2396,2456,2604,2659,2850,2900,3006,3011,3015,2950,2923,2813,2786,2711,2690,2690,2698,2674,2599,2513,2426,2397,2385,2432,2661,2941,2952,2943,2860,2772,2741,2724,2686,2694,2707,2724,2684,2662,2611,2549,2540,2496,2493,2479,2464,2444,2447,2440,2451,2508,2550,2689,2797,2936,2979,2982,2962,2896,2859,2802,2745,2718,2753,2754,2717,2683,2630,2575,2545,2526,2504,2488,2490,2494,2566,2597,2646,2854,2976,3006,3011,3002,2976,2896,2807,2791,2770,2752,2757,2770,2772,2773,2753,2721,2707,2639,2586,2564,2529,2514,2511,2489,2489,2477,2472,2474,2505,2536,2657,2830,2975,3047,3017,2999,2906,2879,2802,2791,2766,2771,2783,2792,2792,2777,2749,2735,2652,2588,2575,2555,2522,2482,2465,2453,2451,2597,2868,3010,2986,2866,2751,2732,2758,2772,2757,2716,2651,2578,2549,2526,2509,2498,2490,2484,2472,2467,2470,2467,2510,2613,2667,2715,2883,2925,2967,3011,2976,2918,2815,2728,2725,2725,2760,2766,2778,2774,2770,2720,2706,2638,2623,2566,2557,2519,2516,2493,2478,2484,2532,2705,2819,2880,2928,3037,3047,3027,3000,2902,2832,2750,2735,2779,2789,2788,2749,2648,2622,2568,2519,2511,2480,2466,2460,2464,2506,2632,2809,2994,3039,3112,3058,3021,2909,2806,2786,2766,2754,2774,2787,2794,2805,2797,2790,2736,2644,2624,2546,2501,2493,2465,2452,2449,2458,2516,2659,2718,2786,2972,3026,3063,3112,3057,3027,2986,2872,2768,2748,2772,2792,2773,2738,2666,2615,2567,2503,2462,2449,2426,2417,2414,2419,2495,2535,2709,2772,2961,3007,3046,3064,2970,2888,2775,2699,2726,2758,2768,2758,2711,2687,2666,2588,2566,2542,2484,2438,2430,2420,2428,2558,2610,2858,3044,3012,2984,2861,2744,2691,2665,2694,2706,2720,2739,2719,2700,2682,2586,2513,2492,2430,2426,2504,2604,2666,2873,2939,3074,3099,3044,2830,2753,2726,2705,2683,2705,2717,2727,2735,2685,2664,2591,2565,2515,2456,2427,2475,2514,2688,2760,2833,3031,3128,3122,3033,2897,2814,2733,2713,2719,2741,2743,2742,2692,2622,2596,2519,2455,2436,2420,2392,2430,2462,2507,2690,2902,2963,3014,3085,3082,3066,2961,2822,2742,2664,2651,2662,2605,2535,2443,2389,2374,2340,2331,2321,2325,2394,2437,2625,2699,2921,3029,3085,3076,2984,2941,2805,2733,2671,2678,2707,2717,2686,2620,2594,2514,2490,2426,2393,2369,2351,2361,2460,2511,2714,2925,2983,3026,3076,2968,2876,2746,2689,2659,2675,2688,2703,2686,2649,2573,2500,2456,2401,2362,2365,2449,2495,2695,2916,2983,3034,3112,3060,3025,2977,2839,2793,2703,2681,2672,2674,2699,2700,2690,2673,2612,2583,2509,2481,2423,2392,2369,2356,2341,2334,2349,2364,2396,2547,2622,2862,2947,3128,3165,3166,3146,3020,2975,2840,2810,2741,2736,2733,2746,2741,2741,2692,2673,2643,2562,2460,2436,2394,2365,2363,2356,2352,2346,2346,2343,2381,2408,2454,2722,2960,3034,3157,3115,3081,2936,2810,2751,2709,2721,2723,2731,2720,2713,2694,2628,2596,2515,2485,2423,2373,2353,2342,2333,2335,2339,2340,2356,2516,2748,2920,3071,3171,3191,2996,2844,2751,2730,2729,2734,2750,2776,2773,2755,2740,2654,2627,2529,2506,2432,2419,2380,2378,2360,2355,2356,2399,2427,2598,2667,2915,2986,3151,3169,3147,3107,2962,2800,2762,2722,2679,2674,2686,2745,2758,2758,2703,2624,2589,2564,2479,2424,2405,2397,2362,2351,2356,2455,2506,2737,2995,3079,3139,3244,3189,3098,3047,2871,2751,2721,2703,2705,2750,2770,2772,2759,2705,2645,2582,2544,2463,2418,2368,2347,2335,2334,2334,2411,2452,2517,2754,2852,3109,3182,3276,3178,3070,2899,2766,2745,2714,2733,2777,2759,2651,2514,2368,2338,2308,2348,2624,3067,3240,3151,2921,2698,2677,2726,2750,2735,2710,2634,2531,2468,2446,2374,2340,2326,2314,2305,2308,2308,2383,2424,2640,2822,3076,3229,3240,3136,2905,2765,2712,2697,2697,2714,2762,2799,2793,2790,2722,2631,2591,2563,2468,2409,2381,2349,2335,2344,2396,2562,2804,3069,3132,3246,3241,3159,3102,2925,2765,2706,2696,2703,2724,2779,2807,2766,2687,2555,2447,2390,2368,2350,2368,2542,2611,2973,3212,3257,3299,3197,3147,3084,2910,2781,2762,2743,2761,2808,2812,2803,2781,2763,2668,2531,2455,2396,2355,2346,2347,2366,2475,2542,2784,3130,3196,3276,3272,3165,3117,2943,2777,2742,2762,2801,2783,2738,2636,2565,2499,2398,2359,2345,2321,2322,2339,2433,2495,2722,2993,3068,3139,3233,3186,3140,3094,2916,2740,2721,2695,2732,2758,2757,2730,2654,2586,2548,2519,2482,2379,2321,2305,2304,2298,2326,2449,2509,2761,2850,3104,3159,3237,3223,3117,3058,2943,2890,2835,2795,2710,2729,2749,2785,2794,2765,2653,2623,2518,2461,2402,2351,2343,2391,2537,2759,2846,2925,3120,3173,3097,2933,2773,2729,2672,2655,2690,2707,2755,2757,2736,2690,2565,2474,2449,2408,2388,2374,2335,2321,2326,2382,2481,2630,2719,2993,3079,3149,3267,3225,3187,3136,2968,2784,2755,2742,2775,2781,2769,2755,2640,2533,2441,2413,2354,2327,2292,2283,2280,2287,2391,2517,2594,2868,3110,3221,3177,3087,2921,2723,2706,2737,2752,2768,2763,2749,2645,2543,2507,2422,2397,2348,2335,2315,2305,2307,2355,2582,2845,2933,3019,3193,3188,3154,2994,2834,2757,2707,2731,2763,2791,2792,2784,2727,2633,2602,2569,2484,2418,2402,2387,2355,2335,2336,2341,2418,2599,2681,2766,3024,3095,3214,3219,3143,3038,2859,2663,2647,2654,2692,2707,2688,2619,2525,2492,20
2364,2451,2655,2750,2839,3111,3240,3219,3094,3031,2975,2804,2705,2681,2676,2683,2712,2732,2739,2754,2745,2698,2667,2646,2556,2490,2453,2408,2403,2389,2368,2355,2374,2395,2486,2554,2781,2868,3014,3117,3071,3025,2868,2808,2674,2639,2601,2599,2643,2656,2702,2703,2691,2670,2629,2611,2583,2494,2448,2407,2384,2379,2400,2517,2583,2725,2796,3006,3047,3080,3068,2900,2797,2680,2643,2643,2694,2725,2746,2809,2809,2803,2783,2724,2653,2637,2613,2569,2550,2567,2588,2797,2873,3084,3224,3234,3142,2994,2938,2895,2789,2772,2795,2849,2871,2879,2877,2845,2800,2734,2664,2649,2627,2609,2630,2705,2766,2829,3079,3300,3381,3379,3344,3210,3154,3022,2982,2961,2920,2936,2940,2958,2950,2913,2886,2805,2768,2685,2654,2588,2563,2554,2564,2696,2758,2837,3072,3148,3270,3284,3218,3183,3030,2987,2868,2847,2822,2800,2796,2800,2793,2768,2745,2641,2558,2505,2478,2460,2397,2355,2359,2481,2538,2613,2842,3020,3044,3060,3003,2881,2830,2790,2680,2632,2620,2621,2628,2624,2610,2554,2536,2508,2437,2366,2352,2332,2296,2261,2256,2243,2232,2240,2316,2372,2431,2754,2837,3029,3001,2974,2843,2726,2692,2640,2629,2636,2637,2651,2644,2641,2595,2534,2507,2488,2423,2410,2368,2362,2336,2334,2315,2313,2302,2302,2364,2414,2539,2697,2777,3048,3098,3078,2974,2833,2797,2761,2712,2719,2736,2748,2793,2796,2802,2769,2707,2678,2657,2566,2516,2510,2478,2453,2451,2454,2547,2597,2663,2885,2966,3033,3173,3162,3135,3091,2993,2892,2783,2756,2743,2773,2801,2823,2772,2744,2668,2637,2617,2549,2510,2493,2487,2453,2435,2433,2512,2560,2792,2880,3152,3218,3275,3320,3184,3081,2949,2861,2838,2841,2843,2843,2802,2729,2628,2539,2508,2461,2446,2394,2384,2367,2335,2315,2331,2350,2588,2874,3127,3244,3197,3064,3008,2960,2871,2801,2738,2731,2717,2713,2702,2695,2634,2555,2521,2494,2407,2387,2362,2310,2266,2258,2243,2202,2204,2249,2508,2799,2891,3102,3133,3152,3098,2967,2914,2870,2750,2689,2676,2676,2678,2692,2686,2646,2587,2559,2467,2450,2395,2355,2340,2332,2300,2294,2268,2269,2291,2362,2565,2657,2940,3182,3201,3150,3112,3062,2915,2794,2770,2748,2733,2733,2759,2760,2756,2703,2624,2528,2502,2417,2356,2323,2280,2257,2247,2282,2433,2502,2588,2852,3067,3103,3127,3082,3046,2994,2775,2661,2634,2622,2668,2678,2702,2673,2659,2634,2564,2535,2471,2449,2406,2390,2359,2347,2338,2394,2554,2885,3101,3139,3162,3133,2999,2939,2886,2741,2712,2669,2676,2701,2736,2771,2776,2743,2646,2622,2539,2519,2493,2444,2438,2463,2495,2600,2745,2991,3058,3182,3148,3113,3062,2893,2704,2673,2638,2637,2646,2672,2670,2659,2568,2485,2463,2396,2351,2340,2342,2457,2513,2744,2971,3067,3093,2953,2903,2739,2667,2668,2681,2686,2683,2659,2640,2581,2555,2491,2469,2455,2405,2379,2379,2452,2497,2697,2772,2989,3039,3095,3016,2976,2940,2834,2764,2762,2762,2773,2774,2727,2643,2577,2561,2542,2512,2502,2463,2452,2498,2634,2699,2763,2960,3064,3061,2981,2786,2722,2707,2704,2705,2725,2724,2727,2691,2614,2551,2505,2489,2480,2443,2435,2424,2412,2452,2578,2768,2975,2995,2981,2874,2835,2792,2672,2650,2653,2655,2691,2714,2722,2674,2615,2592,2541,2524,2512,2474,2451,2448,2502,2537,2587,2766,2993,3025,3032,2898,2857,2744,2694,2731,2781,2788,2795,2775,2761,2741,2681,2619,2605,2587,2552,2557,2618,2859,3068,3200,3211,3213,3096,2965,2930,2837,2827,2835,2854,2846,2835,2767,2659,2636,2552,2490,2516,2832,3156,3275,3232,3074,2970,2899,2858,2843,2786,2704,2611,2577,2493,2444,2382,2303,2288,2436,2510,2772,3032,3093,3142,3177,3105,3065,3027,2906,2816,2791,2775,2735,2730,2719,2690,2626,2540,2441,2355,2327,2268,2223,2213,2200,2173,2161,2155,2151,2250,2309,2388,2572,2778,3042,3142,3158,2971,2851,2767,2752,2722,2720,2716,2706,2687,2630,2601,2510,2415,2389,2361,2295,2240,2214,2184,2151,2141,2130,2135,2230,2289,2555,2660,2981,3066,3218,3227,3117,2968,2918,2784,2755,2760,2773,2775,2764,2731,2680,2647,2617,2520,2440,2363,2324,2299,2265,2255,2269,2385,2455,2534,2725,2829,3100,3165,3206,3223,3098,3042,2981,2821,2777,2706,2698,2720,2732,2748,2768,2664,2541,2426,2379,2339,2398,2591,2885,2993,3260,3369,3255,3069,2901,2855,2776,2763,2770,2775,2790,2785,2778,2690,2590,2499,2422,2369,2328,2285,2296,2321,2599,2710,3076,3393,3504,3498,3356,3228,3046,3000,2897,2879,2864,2850,2829,2812,2738,2591,2550,2446,2360,2340,2318,2274,2234,2225,2213,2224,2294,2531,3016,3138,3398,3430,3210,3018,2959,2912,2805,2786,2771,2755,2740,2732,2716,2644,2534,2497,2457,2350,2218,2170,2107,2115,2185,2417,2769,2891,3200,3312,3234,2970,2779,2658,2608,2606,2612,2609,2574,2494,2359,2266,2191,2173,2127,2092,2086,2064,2063,2066,2109,2209,2466,2890,3099,3130,3137,3060,2886,2824,2763,2623,2561,2565,2609,2624,2639,2647,2581,2557,2444,2371,2336,2299,2270,2268,2345,2532,2617,2977,3048,3167,3128,3090,3040,2875,2732,2702,2657,2688,2704,2732,2735,2686,2662,2613,2561,2495,2475,2433,2420,2383,2379,2519,2586,2859,3061,3297,3369,3344,3107,2969,2865,2878,2881,2837,2787,2695,2559,2502,2436,2417,2531,2757,2949,3218,3368,3361,3307,3113,3061,3015,2939,2857,2850,2848,2852,2844,2832,2817,2746,2718,2686,2595,2514,2454,2406,2366,2353,2339,2418,2473,2540,2800,3067,3135,3228,3092,3042,2898,2858,2773,2739,2737,2722,2671,2591,2562,2533,2451,2368,2324,2300,2267,2241,2301,2346,2402,2623,2859,2920,2968,3012,2998,2851,2726,2666,2627,2648,2659,2682,2669,2655,2638,2575,2551,2471,2430,2419,2385,2363,2359,2418,2563,2695,2886,2993,2985,2895,2853,2684,2613,2606,2621,2636,2685,2698,2707,2702,2656,2637,2617,2557,2540,2502,2483,2457,2485,2600,2657,2720,2927,3078,3101,3057,2935,2774,2747,2726,2707,2729,2740,2762,2724,2704,2613,2554,2510,2499,2488,2480,2454,2439,2443,2459,2571,2857,2939,3141,3217,3212,3134,2968,2929,2826,2814,2801,2807,2807,2802,2769,2705,2656,2561,2505,2488,2460,2448,2409,2398,2386,2384,2400,2591,2829,2910,3150,3183,3144,3042,2935,2876,2809,2802,2795,2783,2775,2746,2723,2612,2521,2464,2391,2373,2321,2293,2264,2296,2332,2507,2587,2922,3079,3107,3052,3014,2928,2843,2745,2722,2692,2693,2706,2694,2682,2619,2544,2492,2419,2342,2328,2310,2436,2642,2719,2800,2991,3032,3056,3039,2830,2709,2677,2638,2654,2668,2709,2708,2682,2644,2570,2481,2432,2420,2421,2450,2667,2749,2842,3114,3320,3330,3258,3215,3106,2997,2865,2838,2800,2788,2798,2781,2749,2673,2578,2519,2446,2383,2356,2416,2617,2705,3010,3251,3301,3327,3121,3063,2920,2848,2781,2749,2713,2589,2456,2322,2267,2266,2494,2879,3163,3167,3041,2986,2840,2729,2708,2686,2659,2652,2641,2583,2557,2479,2446,2366,2338,2241,2195,2188,2205,2342,2410,2679,2768,3038,3073,3009,2863,2764,2657,2604,2602,2624,2626,2615,2539,2467,2439,2395,2357,2311,2294,2273,2364,2416,2642,2960,3012,3078,3063,3042,2905,2757,2711,2680,2620,2634,2672,2698,2670,2563,2474,2418,2393,2393,2413,2533,2764,3020,3219,3196,3058,3007,2853,2817,2781,2735,2728,2747,2750,2761,2750,2722,2704,2677,2545,2458,2405,2374,2367,2431,2475,2543,2707,2801,3106,3188,3263,3354,3355,3300,3253,3208,3001,2880,2818,2800,2789,2779,2736,2692,2608,2572,2487,2407,2334,2324,2280,2276,2297,2451,2715,2926,3191,3291,3194,3049,2993,2833,2772,2742,2732,2721,2682,2603,2578,2482,2458,2375,2333,2288,2237,2199,2197,2210,2245,2521,2730,3046,3279,3257,3215,3069,3011,2964,2830,2736,2708,2708,2696,2663,2587,2499,2437,2347,2283,2246,2203,2198,2173,2172,2154,2157,2190,2232,2280,2623,2949,3222,3216,3187,3137,3025,2969,2805,2768,2731,2688,2683,2712,2738,2729,2686,2656,2572,2537,2512,2431,2383,2361,2330,2315,2346,2495,2741,2843,3109,3179,3223,3256,3133,3078,2832,2741,2687,2682,2734,2736,2728,2708,2641,2608,2551,2528,2497,2436,2402,2348,2351,2480,2549,2642,2960,3077,3345,3404,3433,3411,3249,3187,2989,2939,2816,2798,2767,2773,2771,2778,2737,2719,2661,2623,2594,2459,2357,2333,2288,2248,2251,2317,2377,2637,2754,3109,3303,3377,3447,3348,3227,3029,2838,2813,2762,2757,2751,2715,2583,2477,2448,2413,2338,2275,2263,2218,2224,2305,2553,3128,3358,3383,3257,3059,2999,2837,2749,2730,2715,2711,2703,2688,2632,2535,2504,2399,2317,2290,2238,2194,2166,2158,2221,2430,2633,3071,3256,3270,3156,2884,2762,2642,2617,2621,2664,2672,2578,2420,2319,2234,2236,2407,2669,2775,3055,3202,3163,2998,2732,2606,2589,2586,2604,2654,2669,2673,2656,2518,2403,2351,2335,2317,2319,2465,2737,2848,3311,3516,3537,3483,3428,3228,3155,2928,2855,2844,2853,2857,2860,2848,2785,2751,2644,2568,2462,2434,2352,2308,2292,2400,2476,2784,2909,3344,3469,3444,3289,3075,2947,2810,2779,2736,2728,2714,2658,2631,2530,2392,2362,2283,2205,2203,2268,2492,2831,2948,3061,3298,3314,3217,3019,2783,2741,2665,2643,2630,2561,2534,2404,2371,2340,2253,2161,2142,2098,2133,2176,2405,2962,3055,3207,3214,3061,2794,2646,2616,2578,2581,2617,2560,2476,2360,2288,2267,2214,2187,2193,2292,2622,2829,3087,3182,3141,2970,2697,2643,2549,2546,2623,2682,2637,2553,2523,2434,2357,2336,2319,2323,2457,2729,3058,3156,3339,3327,3285,3228,3013,2815,2766,2728,2680,2705,2720,2734,2747,2740,2676,2646,2544,2511,2418,2328,2317,2353,2399,2646,2760,3262,3366,3560,3467,3403,3179,3034,2830,2769,2760,2757,2736,2717,2634,2596,2440,2339,2257,2183,2227,2428,2785,2918,3374,3493,3456,3283,3071,2944,2799,2708,2701,2691,2668,2609,2549,2440,2324,2256,2179,2155,2138,2087,2085,2236,2552,2827,3318,3466,3460,3439,3272,3059,2988,2825,2752,2725,2689,2669,2664,2588,2487,2452,2338,2307,2218,2197,2130,2117,2090,2074,2088,2327,2691,18
2322,2313,2311,2303,2285,2280,2258,2252,2247,2291,2443,2518,2785,3044,3112,3166,3241,3209,3185,3088,3054,3020,2907,2887,2847,2824,2815,2794,2763,2698,2672,2618,2567,2499,2478,2430,2418,2390,2381,2375,2361,2358,2350,2347,2339,2336,2324,2319,2302,2291,2298,2387,2443,2511,2773,2871,3062,3217,3275,3344,3353,3338,3316,3231,3199,3136,3108,3080,3008,2989,2945,2932,2894,2877,2860,2791,2656,2628,2556,2498,2466,2432,2399,2391,2375,2358,2352,2334,2330,2313,2309,2297,2293,2288,2273,2278,2354,2407,2639,2742,2849,3270,3488,3506,3475,3385,3315,3210,3122,3095,3036,3018,2974,2956,2941,2847,2755,2726,2607,2529,2510,2454,2442,2416,2397,2371,2367,2355,2348,2346,2326,2319,2317,2301,2291,2289,2281,2260,2259,2453,2722,2834,3059,3398,3439,3470,3466,3446,3415,3308,3196,3165,3073,3011,2992,2978,2933,2883,2836,2748,2720,2623,2595,2512,2468,2418,2380,2361,2338,2333,2321,2312,2306,2294,2283,2280,2270,2270,2287,2419,2486,2762,2862,3157,3230,3333,3364,3373,3300,3222,3102,2997,2972,2911,2889,2870,2820,2752,2697,2615,2512,2487,2436,2419,2388,2376,2359,2351,2343,2336,2330,2324,2315,2296,2294,2285,2329,2470,2717,2995,3254,3306,3295,3234,3136,3107,3014,2947,2898,2873,2860,2837,2827,2767,2749,2671,2649,2573,2555,2494,2464,2434,2406,2393,2378,2372,2365,2360,2353,2346,2337,2331,2323,2378,2689,2875,3214,3274,3353,3359,3312,3292,3202,3177,3123,3092,3072,3006,2928,2891,2782,2709,2679,2586,2484,2463,2441,2431,2418,2409,2394,2394,2387,2380,2380,2366,2365,2358,2350,2350,2342,2435,2483,2711,2989,3084,3288,3373,3337,3254,3128,3023,2987,2943,2932,2869,2797,2765,2657,2608,2552,2500,2469,2456,2436,2426,2413,2405,2393,2385,2373,2363,2344,2335,2328,2329,2315,2317,2313,2310,2320,2385,2435,2565,2643,2739,3032,3129,3335,3379,3414,3375,3291,3212,3181,3111,3048,3035,3014,2952,2898,2849,2761,2650,2556,2542,2480,2440,2436,2405,2380,2379,2357,2356,2334,2334,2314,2315,2297,2299,2284,2289,2288,2391,2679,2778,2975,3215,3276,3352,3359,3304,3282,3248,3162,3127,3053,2976,2957,2925,2907,2867,2842,2776,2687,2606,2527,2472,2450,2413,2397,2391,2360,2359,2337,2336,2316,2317,2300,2300,2284,2284,2268,2268,2252,2256,2257,2374,2591,2678,2779,2977,3266,3327,3311,3199,3169,3067,2992,2967,2913,2892,2838,2767,2689,2598,2576,2500,2483,2429,2419,2385,2381,2370,2360,2346,2347,2340,2336,2329,2323,2307,2306,2289,2289,2284,2361,2623,2718,3000,3228,3270,3322,3309,3231,3155,3036,2951,2926,2890,2879,2861,2857,2812,2796,2717,2693,2604,2582,2531,2505,2490,2436,2393,2390,2370,2365,2364,2355,2356,2349,2342,2331,2322,2320,2310,2324,2418,2480,2548,3039,3289,3350,3417,3341,3311,3235,3156,3116,3028,2958,2947,2932,2910,2859,2822,2748,2598,2521,2494,2476,2420,2370,2348,2341,2333,2320,2316,2308,2300,2292,2284,2275,2284,2297,2434,2686,3023,3317,3390,3489,3462,3427,3313,3229,3114,3085,3004,2956,2930,2885,2870,2799,2775,2681,2653,2558,2533,2457,2439,2386,2363,2340,2329,2314,2302,2296,2285,2286,2280,2275,2269,2263,2258,2268,2280,2310,2565,2892,3132,3429,3559,3569,3507,3473,3337,3294,3140,3053,3034,2976,2960,2917,2892,2844,2783,2687,2651,2586,2526,2455,2432,2398,2386,2352,2338,2327,2321,2311,2305,2301,2287,2279,2273,2261,2253,2255,2322,2375,2440,2734,2851,2977,3321,3413,3563,3577,3518,3481,3334,3287,3148,3113,3019,2978,2942,2889,2794,2760,2623,2525,2492,2417,2360,2324,2298,2287,2280,2272,2266,2265,2253,2244,2238,2238,2223,2209,2213,2286,2498,2595,2955,3299,3389,3530,3528,3422,3311,3089,2966,2899,2885,2873,2855,2833,2816,2741,2646,2611,2516,2460,2374,2333,2313,2306,2301,2299,2300,2298,2297,2292,2283,2272,2283,2345,2552,2648,2994,3398,3456,3514,3422,3373,3192,3134,3076,2904,2855,2842,2832,2826,2823,2791,2726,2696,2629,2528,2431,2335,2291,2280,2272,2258,2254,2254,2256,2260,2260,2258,2257,2249,2281,2318,2524,2865,3251,3539,3591,3636,3628,3521,3467,3289,3178,3085,3047,2961,2929,2902,2892,2849,2827,2743,2709,2600,2563,2465,2436,2410,2363,2344,2302,2278,2268,2264,2266,2266,2266,2262,2257,2247,2261,2288,2468,3061,3194,3519,3656,3642,3521,3466,3293,3237,3099,3060,2975,2922,2880,2822,2701,2486,2397,2299,2268,2247,2243,2243,2237,2219,2209,2278,2490,2851,3270,3395,3649,3696,3674,3538,3480,3305,3204,3052,3025,2986,2941,2926,2910,2843,2713,2676,2563,2493,2408,2344,2306,2284,2273,2269,2266,2263,2264,2272,2399,2776,3289,3645,3605,3334,3070,2945,2886,2849,2788,2700,2594,2494,2409,2348,2330,2296,2277,2275,2272,2272,2270,2274,2273,2265,2263,2254,2243,2243,2341,2403,2697,2949,3319,3554,3587,3470,3348,3156,3006,2913,2883,2867,2827,2753,2723,2614,2580,2542,2447,2372,2355,2337,2305,2286,2285,2282,2284,2281,2282,2278,2268,2252,2257,2279,2360,2509,2603,2837,3320,3481,3569,3446,3274,3108,3057,3014,2906,2883,2860,2819,2804,2756,2731,2649,2543,2445,2358,2284,2243,2230,2222,2215,2201,2185,2360,2927,3548,3590,3397,3088,2898,2730,2521,2342,2236,2212,2196,2182,2170,2161,2203,2238,2454,2674,2797,2934,3301,3532,3576,3567,3480,3432,3291,3149,3110,3066,2928,2859,2818,2749,2697,2671,2636,2504,2382,2331,2259,2230,2206,2205,2198,2192,2180,2181,2175,2169,2156,2152,2147,2141,2139,2132,2137,2173,2328,2606,3086,3367,3474,3478,3404,3369,3233,3148,3113,3008,2938,2918,2877,2859,2785,2710,2677,2615,2502,2439,2416,2379,2349,2340,2338,2332,2335,2332,2317,2312,2297,2297,2294,2308,2323,2638,3085,3379,3540,3495,3451,3318,3265,3136,3065,3029,2967,2923,2916,2867,2774,2714,2623,2531,2466,2432,2390,2386,2373,2364,2354,2349,2349,2333,2321,2318,2357,2443,2682,3032,3365,3576,3607,3529,3481,3346,3294,3208,3172,3129,3038,2965,2951,2928,2878,2851,2832,2742,2714,2610,2547,2436,2379,2328,2301,2301,2286,2284,2277,2280,2269,2272,2265,2260,2251,2244,2236,2254,2272,2430,2508,2951,3297,3382,3539,3548,3548,3467,3294,3255,3099,3004,2984,2919,2905,2869,2844,2826,2716,2617,2588,2492,2469,2396,2349,2310,2286,2275,2267,2265,2253,2254,2246,2240,2230,2229,2302,2483,2781,3100,3418,3417,3272,3135,3099,3025,2963,2953,2889,2850,2772,2692,2601,2579,2502,2451,2432,2423,2390,2387,2375,2366,2358,2353,2345,2339,2331,2315,2306,2289,2289,2281,2294,2306,2338,2495,2764,2860,3153,3293,3368,3378,3354,3294,3176,3144,3043,2982,2962,2955,2925,2922,2882,2869,2795,2773,2683,2574,2516,2464,2435,2420,2400,2386,2373,2356,2334,2318,2391,2501,2759,3163,3368,3410,3434,3375,3268,3168,3074,3010,2958,2919,2860,2842,2813,2734,2701,2616,2586,2515,2454,2415,2380,2365,2356,2345,2332,2317,2312,2295,2295,2285,2299,2390,2609,2701,3026,3125,3366,3410,3444,3449,3436,3346,3316,3209,3179,3085,3032,2975,2942,2881,2782,2695,2570,2486,2466,2441,2392,2351,2345,2334,2319,2310,2303,2295,2287,2280,2274,2267,2258,2250,2236,2240,2258,2320,2514,2824,3148,3385,3464,3450,3338,3237,3109,3076,3010,2949,2912,2851,2737,2702,2614,2505,2479,2427,2409,2387,2382,2371,2361,2355,2357,2349,2348,2341,2334,2325,2299,2303,2313,2436,2499,2776,2877,2988,3258,3327,3416,3420,3351,3238,3113,3017,2987,2933,2891,2882,2865,2810,2726,2699,2665,2545,2455,2422,2392,2366,2353,2351,2346,2341,2334,2333,2313,2299,2296,2305,2389,2607,2702,2811,3142,3244,3444,3481,3488,3469,3331,3204,3165,3123,2984,2914,2891,2790,2702,2548,2440,2366,2308,2290,2278,2272,2259,2245,2244,2226,2224,2217,2213,2221,2292,2350,2603,2836,3205,3398,3542,3537,3507,3398,3352,3179,3059,2986,2897,2832,2806,2734,2642,2577,2548,2454,2431,2383,2359,2315,2268,2253,2249,2238,2231,2217,2206,2206,2193,2188,2204,2322,2571,2684,3047,3165,3267,3496,3482,3410,3266,3086,2987,2919,2907,2891,2837,2820,2743,2649,2613,2519,2486,2392,2349,2328,2309,2302,2298,2292,2287,2283,2273,2255,2253,2264,2289,2443,2625,2977,3463,3544,3476,3339,3138,3005,2909,2883,2832,2769,2746,2641,2549,2489,2411,2392,2341,2332,2305,2301,2288,2288,2282,2283,2278,2278,2270,2269,2260,2252,2252,2244,2251,2277,2436,2743,2865,3251,3361,3586,3617,3611,3581,3463,3416,3275,3227,3096,3053,2950,2874,2812,2732,2704,2604,2507,2476,2450,2380,2364,2319,2293,2291,2298,2296,2295,2268,2254,2232,2223,2191,2172,2157,2153,2140,2164,2292,2575,2696,3108,3538,3629,3583,3442,3393,3242,3121,3082,2993,2968,2949,2892,2836,2812,2789,2668,2568,2508,2431,2370,2357,2319,2312,2303,2291,2286,2281,2278,2276,2273,2267,2262,2254,2271,2293,2458,2994,3117,3418,3551,3553,3472,3421,3254,3140,3001,2966,2934,2878,2853,2848,2832,2801,2728,2700,2599,2504,2419,2340,2314,2291,2284,2279,2277,2274,2271,2264,2263,2270,2347,2561,2660,3015,3346,3430,3492,3564,3494,3409,3259,3162,3032,2933,2886,2835,2820,2787,2743,2660,2566,2532,2501,2387,2322,2288,2246,2241,2231,2224,2223,2222,2215,2208,2198,2219,2249,2293,2532,2640,3022,3371,3520,3584,3551,3427,3279,3140,3024,2931,2865,2846,2828,2761,2737,2646,2615,2512,2480,2388,2362,2294,2277,2232,2223,2198,2194,2180,2179,2170,2169,2161,2161,2157,2148,2135,2155,2438,2766,3301,3437,3428,3333,3215,3071,2987,2948,2904,2843,2775,2690,2626,2532,2505,2477,2407,2388,2345,2333,2311,2296,2292,2286,2276,2255,2228,2218,2362,2610,2925,3024,3252,3294,3331,3317,3234,3195,3083,3048,3018,2948,2934,2910,2906,2902,2871,2816,2709,2680,2600,2575,2512,2480,2465,2453,2421,2414,2407,2394,2389,2381,2378,2370,2366,2350,2343,2344,2424,2622,2903,3005,3318,3403,3394,3324,3149,3063,2996,2982,2948,2916,2901,2886,2822,2739,2653,2575,2550,2491,2445,2433,2421,2396,2378,2374,2369,2359,2354,2352,2341,2323,2319,14
2584,2584,2578,2581,2574,2569,2560,2552,2545,2561,2688,2739,2887,3002,3009,2948,2913,2803,2758,2745,2745,2744,2768,2770,2789,2781,2767,2713,2703,2684,2655,2628,2613,2602,2597,2588,2594,2591,2598,2596,2602,2601,2589,2582,2573,2577,2603,2637,2763,2822,2981,3032,3097,3102,3042,3019,2929,2911,2852,2845,2832,2832,2835,2840,2852,2845,2812,2804,2775,2722,2711,2691,2644,2628,2609,2608,2602,2602,2601,2597,2591,2589,2575,2577,2562,2563,2555,2540,2573,2597,2739,2794,2921,2989,3043,3155,3144,3128,3098,2958,2899,2878,2876,2877,2885,2886,2881,2868,2835,2813,2766,2730,2679,2647,2627,2600,2598,2589,2580,2568,2570,2556,2558,2543,2527,2528,2512,2513,2497,2498,2492,2554,2694,2899,2963,3129,3154,3172,3168,3146,3032,2956,2897,2881,2877,2879,2890,2875,2844,2811,2785,2727,2662,2649,2595,2543,2519,2518,2502,2504,2494,2496,2489,2488,2476,2467,2449,2439,2435,2523,2691,2754,2828,2960,3106,3105,3057,3023,2929,2870,2802,2782,2784,2797,2820,2818,2809,2793,2748,2723,2707,2638,2583,2563,2552,2511,2506,2481,2482,2469,2471,2472,2468,2461,2459,2481,2512,2543,2708,3070,3113,3001,2896,2825,2803,2782,2776,2781,2793,2805,2810,2777,2726,2700,2681,2592,2533,2504,2476,2463,2453,2454,2448,2449,2447,2450,2445,2442,2426,2430,2503,2685,2841,3071,3178,3228,3131,3022,2992,2913,2898,2866,2864,2860,2867,2860,2820,2806,2734,2711,2628,2607,2522,2473,2452,2436,2423,2421,2422,2414,2415,2405,2399,2382,2381,2364,2359,2367,2377,2556,2895,3070,3250,3227,3126,3021,2950,2903,2886,2870,2869,2843,2832,2773,2752,2672,2596,2568,2549,2487,2474,2456,2416,2405,2398,2397,2392,2393,2388,2380,2374,2367,2355,2355,2345,2344,2346,2361,2465,2531,2777,2874,3061,3139,3305,3263,3225,3108,3067,3034,2973,2947,2930,2890,2879,2877,2873,2862,2849,2802,2725,2618,2595,2524,2508,2488,2452,2438,2420,2412,2410,2405,2410,2407,2410,2404,2397,2382,2386,2425,2515,2730,2990,3182,3232,3192,3033,2989,2916,2825,2818,2804,2808,2808,2817,2810,2773,2756,2711,2629,2529,2489,2431,2411,2404,2402,2400,2408,2408,2412,2416,2401,2402,2607,2857,3247,3301,3158,3041,2956,2900,2889,2861,2858,2852,2836,2796,2781,2709,2683,2597,2572,2545,2480,2420,2395,2385,2381,2381,2383,2384,2378,2367,2366,2359,2353,2351,2351,2369,2493,2566,2945,3143,3295,3382,3328,3291,3253,3133,3099,3064,2991,2935,2921,2906,2863,2827,2791,2717,2602,2524,2498,2443,2426,2397,2388,2385,2374,2372,2374,2373,2373,2364,2364,2353,2351,2338,2329,2320,2326,2455,2690,2789,3088,3176,3330,3343,3279,3240,3098,3055,2943,2919,2896,2866,2859,2852,2845,2838,2828,2818,2762,2686,2629,2550,2494,2479,2452,2445,2442,2435,2435,2433,2432,2428,2422,2417,2414,2397,2375,2377,2443,2711,2801,3140,3236,3244,3138,3092,2959,2833,2814,2782,2776,2779,2781,2777,2771,2729,2708,2634,2607,2531,2508,2453,2439,2410,2404,2395,2394,2395,2400,2407,2409,2411,2415,2411,2401,2404,2502,2731,2830,3146,3450,3407,3276,3227,3180,3095,3025,2949,2888,2879,2855,2826,2810,2793,2721,2694,2605,2577,2497,2476,2455,2409,2397,2377,2373,2369,2370,2375,2377,2382,2382,2380,2377,2370,2356,2402,2586,3105,3368,3415,3174,3008,2933,2886,2871,2867,2814,2742,2653,2622,2531,2504,2456,2391,2368,2361,2365,2367,2371,2380,2385,2386,2382,2378,2375,2364,2353,2381,2415,2527,2892,2995,3253,3305,3337,3219,3049,2896,2857,2781,2769,2765,2771,2794,2799,2790,2777,2759,2682,2620,2525,2498,2424,2365,2349,2345,2348,2352,2356,2372,2376,2388,2389,2388,2387,2393,2460,2653,2740,2838,3133,3338,3363,3250,3083,2981,2868,2822,2792,2796,2799,2790,2764,2747,2721,2601,2508,2477,2386,2349,2328,2329,2326,2336,2338,2356,2369,2381,2382,2372,2369,2363,2378,2501,2666,2999,3411,3516,3285,3123,2942,2881,2853,2821,2764,2676,2580,2460,2414,2394,2356,2338,2336,2347,2354,2363,2369,2373,2376,2373,2371,2366,2359,2356,2355,2451,2519,2798,3141,3242,3332,3462,3461,3436,3342,3216,3022,2873,2816,2787,2812,2831,2834,2827,2753,2660,2623,2525,2493,2422,2401,2389,2357,2349,2355,2375,2390,2398,2394,2390,2394,2463,2519,2672,2765,2874,3199,3460,3472,3385,3210,3025,2895,2821,2811,2797,2801,2802,2806,2790,2729,2641,2605,2538,2474,2399,2376,2345,2336,2325,2315,2318,2326,2343,2354,2364,2359,2360,2346,2346,2362,2393,2578,2678,3028,3155,3461,3527,3566,3539,3375,3188,3030,2935,2910,2860,2850,2841,2814,2794,2723,2689,2593,2555,2465,2414,2355,2326,2311,2311,2319,2319,2331,2330,2336,2332,2330,2312,2307,2385,2440,2719,3089,3217,3497,3548,3567,3447,3253,3126,2977,2896,2878,2861,2857,2864,2859,2835,2795,2702,2671,2602,2563,2533,2441,2352,2328,2331,2330,2337,2358,2376,2376,2361,2363,2628,3057,3341,3450,3358,3237,3040,2978,2844,2812,2775,2778,2802,2824,2820,2797,2782,2756,2666,2558,2528,2495,2420,2397,2361,2349,2343,2341,2347,2359,2371,2391,2399,2397,2391,2387,2612,2700,3033,3254,3466,3399,3212,2988,2952,2864,2837,2832,2836,2838,2810,2745,2711,2682,2571,2476,2446,2425,2364,2339,2332,2333,2331,2338,2348,2357,2371,2369,2374,2369,2358,2346,2335,2389,2592,2939,3063,3414,3592,3571,3434,3368,3189,3041,2953,2891,2850,2813,2674,2573,2536,2445,2371,2358,2319,2310,2310,2323,2333,2329,2332,2320,2321,2305,2298,2298,2285,2282,2279,2340,2536,2879,3256,3560,3540,3491,3316,3249,3089,3042,3008,2926,2911,2873,2869,2845,2840,2776,2689,2596,2557,2529,2440,2395,2338,2325,2320,2326,2331,2338,2342,2343,2345,2340,2336,2331,2329,2316,2318,2313,2336,2359,2542,2631,2973,3089,3444,3476,3392,3189,2940,2898,2801,2797,2809,2815,2835,2798,2716,2573,2506,2421,2360,2348,2350,2344,2356,2381,2383,2405,2413,2407,2399,2391,2415,2553,2839,2947,3285,3479,3504,3430,3180,3121,2953,2916,2830,2819,2798,2807,2805,2809,2769,2742,2621,2522,2424,2375,2330,2314,2301,2298,2311,2333,2351,2349,2360,2354,2351,2337,2336,2329,2336,2439,2516,2825,3337,3447,3616,3627,3605,3515,3321,3249,3189,3027,2937,2913,2902,2874,2863,2862,2817,2745,2639,2536,2499,2392,2347,2333,2322,2327,2336,2345,2358,2359,2352,2339,2324,2325,2317,2313,2321,2346,2603,2951,3086,3583,3570,3394,3185,3027,2921,2876,2857,2860,2847,2843,2773,2678,2650,2611,2515,2427,2385,2373,2335,2327,2321,2327,2332,2341,2348,2355,2359,2365,2358,2356,2348,2341,2359,2393,2582,3020,3143,3421,3497,3439,3241,3092,3028,2854,2773,2757,2769,2777,2824,2831,2837,2821,2754,2717,2611,2472,2439,2360,2354,2331,2341,2353,2370,2395,2399,2410,2465,2518,2851,3362,3495,3486,3467,3302,3097,3024,2866,2758,2743,2755,2789,2778,2770,2746,2670,2601,2492,2410,2334,2314,2299,2312,2325,2344,2361,2383,2382,2379,2395,2676,3025,3468,3530,3586,3451,3391,3130,3023,2911,2860,2844,2838,2832,2825,2809,2756,2723,2629,2588,2490,2401,2349,2316,2316,2312,2320,2333,2344,2354,2363,2367,2354,2355,2333,2329,2297,2295,2291,2329,2435,2731,2849,3225,3414,3501,3358,3169,3105,2958,2850,2829,2765,2739,2712,2650,2624,2603,2511,2396,2336,2347,2385,2400,2405,2392,2378,2380,2380,2387,2384,2402,2666,3343,3615,3453,3296,3184,3118,3108,3108,3141,3156,3136,3050,3019,2890,2770,2727,2697,2605,2541,2540,2528,2530,2525,2528,2511,2508,2460,2443,2371,2348,2408,2448,2567,2639,2856,2803,2634,2576,2345,2292,2182,2150,2114,2135,2160,2179,2266,2325,2341,2345,2353,2335,2334,2325,2323,2319,2328,2339,2353,2377,2393,2418,2445,2457,2512,2562,2774,2977,3307,3526,3566,3545,3515,3465,3247,3105,3060,2977,2919,2908,2900,2855,2829,2723,2697,2600,2574,2482,2423,2338,2256,2231,2254,2260,2277,2320,2325,2331,2359,2444,2680,2773,3080,3237,3311,3229,3068,2969,2863,2809,2806,2818,2845,2942,2994,3034,3049,3051,3037,2985,2902,2881,2852,2790,2732,2709,2691,2680,2669,2649,2607,2596,2526,2525,2728,3079,3159,3337,3343,3319,3171,3118,3055,2838,2724,2691,2673,2625,2615,2608,2565,2450,2336,2290,2254,2138,2112,2021,1982,1977,1986,1997,2022,2032,2049,2199,2358,2678,2784,3069,3167,3012,2815,2727,2695,2693,2701,2697,2680,2623,2554,2447,2372,2322,2303,2282,2264,2266,2263,2268,2269,2260,2265,2337,2527,2626,2723,3055,3303,3356,3371,3269,3117,2951,2881,2839,2839,2832,2835,2823,2821,2805,2759,2677,2655,2622,2597,2511,2490,2422,2380,2357,2338,2337,2344,2344,2360,2366,2371,2370,2368,2384,2488,2555,2808,3008,3263,3362,3340,3222,3014,2962,2822,2783,2774,2780,2794,2816,2818,2764,2684,2660,2567,2492,2465,2414,2371,2365,2362,2370,2378,2387,2439,2639,2876,2965,3178,3253,3249,3180,3026,2829,2712,2705,2700,2744,2753,2789,2766,2743,2728,2643,2566,2535,2452,2403,2389,2378,2433,2527,2598,2955,3216,3285,3325,3325,3292,3131,2969,2828,2766,2730,2732,2747,2774,2786,2777,2771,2687,2629,2537,2440,2397,2380,2364,2358,2354,2361,2389,2593,3092,3409,3379,3216,2931,2789,2769,2776,2781,2727,2678,2585,2499,2467,2375,2334,2318,2302,2298,2295,2312,2311,2327,2325,2336,2399,2452,2512,2790,3126,3237,3455,3488,3452,3413,3226,3163,2975,2928,2814,2795,2774,2762,2793,2769,2656,2554,2430,2410,2365,2308,2297,2296,2290,2286,2298,2309,2331,2349,2349,2360,2369,2399,2558,2648,2965,3085,3381,3509,3479,3314,3022,2960,2801,2719,2727,2777,2810,2811,2774,2744,2654,2514,2477,2399,2337,2312,2302,2304,2314,2316,2349,2362,2377,2429,2460,2515,2739,3049,3146,3244,3414,3401,3353,3302,3015,2811,2764,2660,2643,2678,2755,2771,2752,2688,2583,2450,2375,2320,2300,2303,2303,2329,2372,2434,2629,2941,3267,3484,3405,3130,2936,2795,2771,2730,2771,2783,2737,2718,2618,2516,2415,2345,2311,2279,2283,2298,2327,2329,2348,2387,2415,2465,2609,2812,3288,3528,3566,3525,3353,3275,3207,26
2866,2827,2825,2829,2840,2852,2853,2855,2830,2780,2756,2734,2638,2614,2560,2520,2513,2504,2493,2487,2484,2484,2481,2478,2470,2468,2463,2455,2445,2430,2421,2403,2396,2394,2395,2459,2628,2868,3116,3183,3305,3318,3295,3270,3183,3150,3061,3033,3011,2950,2938,2908,2906,2902,2900,2900,2895,2870,2818,2798,2750,2698,2623,2602,2543,2528,2511,2480,2459,2449,2438,2417,2406,2393,2379,2360,2343,2332,2369,2400,2559,2790,2876,3101,3231,3251,3220,3110,3081,2990,2967,2944,2895,2879,2875,2876,2877,2880,2881,2864,2854,2838,2776,2750,2697,2671,2644,2595,2553,2517,2503,2490,2461,2453,2447,2430,2421,2417,2404,2388,2381,2374,2348,2323,2314,2316,2329,2354,2492,2719,2805,2892,3121,3177,3274,3234,3207,3106,3070,2966,2937,2866,2851,2825,2821,2820,2816,2800,2771,2754,2683,2601,2573,2548,2476,2423,2409,2398,2370,2365,2359,2346,2338,2332,2327,2316,2304,2296,2285,2267,2262,2255,2340,2526,2610,2805,3112,3343,3391,3441,3386,3317,3238,3159,3055,3026,2952,2911,2880,2848,2771,2657,2568,2443,2393,2359,2353,2345,2334,2332,2327,2324,2312,2302,2297,2288,2284,2271,2263,2255,2248,2235,2245,2318,2500,2583,2678,2885,2987,3258,3320,3369,3416,3415,3353,3315,3277,3150,3037,3002,2972,2899,2868,2847,2830,2812,2765,2689,2663,2632,2549,2474,2422,2384,2364,2358,2351,2347,2347,2341,2336,2324,2323,2315,2308,2293,2291,2275,2265,2255,2275,2292,2419,2642,2737,2831,3113,3298,3332,3345,3320,3213,3172,3125,3003,2879,2856,2822,2815,2817,2814,2804,2792,2763,2721,2648,2617,2543,2515,2456,2436,2400,2384,2367,2364,2360,2362,2359,2356,2345,2346,2341,2336,2324,2325,2320,2315,2302,2301,2293,2298,2384,2868,3069,3312,3360,3425,3309,3233,3157,3058,3025,2973,2932,2919,2885,2867,2847,2801,2712,2690,2610,2543,2501,2450,2441,2411,2400,2391,2386,2380,2366,2366,2360,2347,2336,2333,2321,2322,2318,2330,2338,2423,2468,2669,2913,3137,3252,3266,3248,3199,3176,3142,3114,3022,2956,2935,2923,2896,2896,2897,2902,2903,2892,2852,2837,2796,2751,2681,2663,2606,2555,2536,2512,2509,2496,2492,2478,2478,2470,2461,2453,2453,2441,2432,2419,2428,2483,2631,2693,2768,2919,3061,3167,3229,3235,3182,3153,3130,3074,3023,2995,2943,2906,2898,2902,2884,2851,2790,2746,2688,2601,2574,2561,2547,2538,2522,2516,2502,2495,2478,2459,2449,2438,2439,2436,2504,2539,2594,2789,3024,3155,3265,3284,3224,3150,3066,3004,2971,2952,2931,2915,2917,2910,2900,2882,2840,2816,2774,2729,2670,2645,2609,2578,2568,2530,2500,2498,2478,2469,2459,2459,2442,2442,2427,2428,2423,2416,2400,2401,2394,2389,2387,2437,2562,2628,2693,2995,3171,3201,3238,3188,3170,3140,3085,3062,3032,2971,2939,2904,2899,2895,2898,2891,2870,2852,2800,2774,2708,2681,2623,2601,2561,2545,2539,2514,2505,2497,2498,2486,2472,2472,2454,2430,2427,2403,2401,2391,2386,2400,2492,2535,2654,2795,3009,3141,3168,3171,3137,3060,2941,2912,2857,2840,2835,2821,2832,2827,2808,2754,2738,2668,2607,2583,2570,2536,2495,2477,2457,2452,2438,2427,2420,2405,2396,2387,2373,2376,2374,2402,2432,2464,2644,2715,2977,3057,3266,3306,3368,3361,3311,3218,3189,3153,3071,3042,2985,2966,2942,2933,2933,2923,2894,2851,2777,2701,2672,2651,2576,2523,2504,2495,2456,2451,2440,2425,2414,2405,2395,2387,2379,2371,2362,2342,2329,2319,2314,2345,2379,2416,2613,2692,2974,3144,3314,3348,3368,3343,3253,3221,3147,3075,2979,2958,2918,2881,2872,2849,2834,2784,2703,2647,2566,2489,2472,2450,2397,2379,2371,2367,2361,2360,2355,2353,2347,2339,2331,2319,2310,2298,2293,2325,2348,2389,2568,2651,2832,3015,3226,3274,3319,3316,3257,3216,3177,3037,2917,2880,2810,2780,2789,2792,2759,2745,2670,2645,2613,2532,2458,2422,2388,2365,2361,2357,2360,2357,2356,2351,2350,2334,2322,2317,2321,2368,2523,2689,2996,3288,3421,3492,3464,3358,3171,3122,3008,2919,2900,2880,2850,2829,2824,2811,2767,2632,2545,2464,2406,2363,2342,2333,2323,2321,2317,2315,2310,2305,2300,2300,2285,2267,2268,2280,2379,2437,2512,2801,3141,3242,3334,3498,3504,3475,3441,3296,3247,3194,3059,2948,2894,2847,2819,2811,2785,2724,2701,2671,2582,2548,2519,2462,2412,2354,2342,2307,2297,2297,2295,2297,2293,2292,2288,2285,2279,2274,2264,2264,2255,2257,2258,2309,2543,2633,2960,3276,3361,3498,3509,3442,3348,3183,3027,2915,2842,2838,2841,2857,2857,2837,2799,2713,2613,2519,2447,2391,2373,2374,2380,2379,2371,2352,2323,2323,2335,2361,2398,2689,3018,3129,3402,3519,3519,3503,3381,3207,3148,3091,2941,2900,2866,2783,2772,2774,2770,2740,2722,2645,2614,2519,2488,2459,2406,2364,2321,2313,2301,2297,2296,2297,2300,2302,2302,2304,2302,2299,2288,2275,2273,2312,2399,2648,3016,3148,3498,3686,3703,3596,3421,3359,3139,3093,2979,2903,2884,2871,2861,2835,2800,2782,2762,2707,2644,2537,2504,2410,2321,2307,2275,2265,2259,2258,2258,2255,2247,2237,2231,2224,2217,2243,2310,2526,3135,3479,3662,3497,3316,3256,3100,2983,2951,2885,2853,2832,2802,2784,2767,2689,2597,2564,2475,2447,2382,2363,2351,2329,2320,2316,2305,2306,2303,2304,2300,2300,2293,2288,2282,2274,2274,2271,2271,2274,2277,2310,2334,2494,2572,2891,3455,3639,3582,3533,3360,3295,3074,2962,2934,2895,2890,2901,2903,2907,2893,2845,2791,2691,2535,2445,2429,2398,2382,2383,2381,2379,2380,2373,2373,2362,2360,2354,2340,2332,2315,2308,2309,2319,2427,2487,2762,2873,3227,3329,3549,3580,3596,3533,3378,3315,3138,3081,2914,2888,2839,2835,2834,2838,2830,2807,2744,2651,2523,2496,2421,2385,2351,2342,2333,2329,2329,2327,2327,2323,2319,2315,2306,2306,2294,2287,2277,2294,2311,2345,2524,2837,2959,3090,3441,3686,3699,3621,3458,3394,3215,3158,3111,2965,2910,2904,2895,2877,2867,2804,2779,2680,2648,2546,2517,2484,2413,2391,2350,2324,2317,2315,2314,2310,2312,2306,2303,2293,2278,2278,2263,2264,2284,2394,2636,2738,2855,3204,3311,3524,3561,3550,3475,3315,3088,3035,2954,2861,2856,2863,2870,2860,2792,2710,2646,2551,2479,2454,2411,2395,2390,2371,2369,2367,2361,2357,2359,2347,2339,2326,2315,2306,2306,2345,2485,2564,2849,2963,3265,3412,3503,3404,3239,3187,3125,2975,2862,2842,2820,2813,2807,2829,2829,2826,2777,2759,2729,2644,2609,2495,2474,2433,2412,2379,2363,2355,2349,2351,2347,2348,2351,2343,2345,2332,2324,2316,2329,2356,2499,2581,2883,3006,3343,3515,3639,3596,3464,3241,3094,2998,2970,2934,2926,2918,2882,2868,2788,2695,2658,2563,2529,2505,2433,2419,2376,2371,2360,2353,2340,2339,2329,2317,2301,2300,2278,2268,2263,2264,2385,2454,2723,3188,3389,3584,3552,3413,3364,3193,3056,3014,2987,2913,2905,2885,2890,2879,2860,2811,2722,2656,2565,2473,2411,2363,2333,2323,2325,2323,2315,2301,2297,2288,2272,2262,2284,2552,2969,3276,3362,3494,3473,3432,3283,3103,2956,2853,2839,2821,2822,2839,2853,2821,2754,2719,2623,2520,2495,2417,2403,2383,2354,2333,2336,2330,2336,2332,2341,2337,2334,2317,2316,2293,2292,2294,2411,2469,2550,2854,3310,3406,3566,3529,3491,3323,3270,3100,3011,2918,2893,2854,2855,2832,2784,2663,2554,2460,2428,2363,2341,2297,2287,2281,2277,2278,2273,2270,2258,2250,2234,2214,2210,2209,2224,2318,2453,2766,2884,3248,3498,3548,3581,3498,3344,3120,3067,2949,2862,2847,2829,2809,2802,2774,2765,2697,2639,2611,2574,2546,2447,2372,2348,2289,2263,2265,2258,2261,2255,2255,2247,2249,2242,2244,2235,2236,2229,2226,2229,2245,2261,2404,2473,2777,3125,3410,3530,3437,3277,3213,3050,2998,2891,2862,2829,2824,2844,2856,2849,2806,2776,2687,2582,2518,2423,2411,2373,2371,2366,2367,2374,2376,2381,2373,2374,2366,2348,2319,2317,2328,2356,2390,2595,2687,3024,3133,3470,3508,3477,3316,3132,3068,2920,2876,2800,2782,2772,2770,2777,2779,2736,2718,2601,2534,2469,2371,2324,2308,2302,2304,2302,2308,2319,2318,2325,2321,2319,2312,2293,2287,2288,2353,2558,3032,3525,3717,3731,3621,3432,3369,3133,3003,2973,2901,2875,2860,2839,2821,2755,2624,2586,2490,2388,2336,2327,2303,2301,2296,2297,2294,2298,2295,2294,2295,2292,2290,2286,2282,2277,2279,2268,2260,2255,2261,2269,2293,2371,2433,2727,2851,3387,3670,3717,3745,3686,3439,3171,3119,2982,2907,2885,2877,2884,2874,2857,2793,2653,2612,2471,2374,2339,2328,2335,2352,2362,2359,2344,2327,2317,2312,2288,2302,2358,2553,2885,3257,3536,3585,3603,3450,3384,3231,2947,2799,2731,2727,2740,2749,2783,2783,2758,2735,2647,2609,2499,2461,2349,2331,2289,2275,2278,2292,2302,2308,2314,2317,2313,2295,2281,2354,2408,2667,3061,3336,3660,3772,3760,3461,3257,3003,2901,2877,2873,2864,2854,2844,2783,2689,2652,2545,2477,2392,2372,2322,2302,2298,2293,2291,2289,2292,2291,2291,2289,2289,2282,2280,2268,2253,2249,2242,2263,2390,2776,3162,3286,3615,3643,3568,3519,3337,3161,3109,2950,2882,2868,2845,2829,2817,2761,2674,2573,2445,2371,2354,2316,2302,2303,2312,2319,2322,2324,2324,2318,2315,2311,2296,2279,2275,2276,2346,2537,2846,3296,3504,3534,3542,3471,3308,3246,3183,2965,2864,2842,2820,2836,2848,2829,2765,2735,2704,2602,2511,2443,2391,2378,2375,2376,2378,2380,2372,2347,2339,2332,2330,2370,2409,2461,2815,3161,3268,3507,3548,3561,3533,3397,3341,3174,3122,3029,2921,2858,2845,2826,2823,2803,2775,2680,2584,2490,2462,2392,2373,2333,2309,2306,2303,2304,2304,2300,2294,2278,2264,2248,2264,2379,2445,2529,2624,2976,3321,3413,3570,3521,3477,3258,3100,3054,2938,2909,2881,2836,2813,2800,2746,2639,2610,2511,2424,2376,2323,2288,2282,2284,2283,2284,2282,2284,2280,2269,2267,2261,2248,2235,2240,2332,2537,2637,2977,3096,3384,3493,3508,3477,3336,3276,3104,3003,2888,2828,2816,2817,2822,2807,2747,2660,2592,2493,2438,2378,2334,2322,2324,2326,2326,2324,2309,2290,2268,2279,2376,2609,3068,16
2960,2836,2694,2529,2359,2206,2096,2068,2031,2014,2014,2019,2046,2087,2140,2334,2434,2546,2956,3379,3496,3588,3731,3681,3636,3576,3351,3091,3008,2926,2689,2645,2653,2735,2768,2803,2868,2860,2838,2812,2694,2551,2498,2354,2308,2193,2158,2080,2059,2044,2014,2013,2015,2022,2041,2102,2148,2218,2673,3145,3576,3809,3836,3704,3566,3333,2980,2934,2848,2852,2864,2921,2947,2945,2932,2862,2823,2786,2641,2490,2437,2391,2255,2152,2080,2051,2047,2055,2073,2093,2095,2099,2094,2082,2059,2086,2124,2500,2950,3106,3596,3709,3695,3436,3211,3010,2950,2835,2810,2801,2809,2863,2890,2901,2892,2841,2774,2643,2510,2463,2422,2303,2215,2187,2170,2125,2117,2115,2122,2140,2168,2184,2196,2191,2188,2160,2174,2322,2872,3238,3457,3174,2967,2667,2578,2595,2643,2741,2819,2802,2732,2696,2662,2544,2432,2393,2361,2270,2250,2226,2188,2177,2184,2188,2227,2269,2296,2323,2336,2347,2415,2479,2552,2988,3354,3575,3599,3451,3382,3035,2683,2488,2415,2414,2432,2519,2560,2653,2679,2707,2710,2692,2669,2654,2643,2578,2554,2473,2458,2450,2472,2498,2656,2849,2980,3174,3608,3840,4016,4052,4066,4052,3961,3909,3844,3592,3488,3385,2982,2794,2768,2762,2878,2928,2991,3225,3456,3546,3770,3838,3898,4067,4067,4066,4066,4066,4066,4062,3538,3303,2598,1896,1709,1575,1481,1481,1481,1481,1480,1480,1480,1480,1480,1480,1480,1480,1480,1481,1481,1481,1481,1481,1481,1481,1481,1481,1480,1480,1480,1481,1481,1481,1481,1481,1481,1481,1481,1481,1487,1490,1491,1502,1514,1630,1687,1919,2166,2390,2449,2433,2411,2403,2479,2587,2712,2742,2775,2824,2816,2778,2703,2651,2581,2502,2483,2454,2431,2429,2421,2426,2439,2561,2624,2895,2996,3205,3487,3525,3387,3213,3037,2978,2843,2808,2773,2775,2794,2873,2913,3010,3041,3083,3088,3048,3026,2956,2910,2773,2631,2521,2435,2417,2359,2346,2325,2280,2227,2212,2188,2128,2064,2029,2093,2325,2426,2785,2898,3009,3220,3268,3250,3232,3104,3018,3005,2990,3038,3100,3160,3166,3174,3137,3075,2920,2604,2508,2227,1949,1874,1797,1631,1515,1592,1661,1766,1829,1918,2019,2260,2497,2924,3346,3450,3636,3592,3443,3187,3068,2997,2964,2967,2982,2977,2924,2904,2768,2725,2607,2489,2426,2360,2315,2310,2324,2358,2378,2404,2416,2432,2452,2453,2461,2469,2482,2503,2649,2956,3214,3603,3850,3901,3842,3802,3694,3506,3325,3269,3146,3081,3078,3075,3102,3117,3118,3107,3042,3004,2869,2814,2658,2559,2425,2357,2290,2228,2187,2155,2141,2113,2100,2070,2045,2003,2007,2129,2392,2956,3191,3250,3158,3070,2926,2822,2798,2789,2901,2997,3090,3101,3126,3108,3096,3075,3008,2979,2955,2868,2794,2766,2746,2681,2635,2618,2609,2569,2525,2527,2585,2763,2834,2913,3116,3167,3194,3182,3039,2982,2914,2724,2545,2494,2443,2339,2292,2295,2299,2364,2389,2425,2512,2573,2588,2578,2547,2528,2481,2460,2401,2378,2369,2369,2368,2381,2382,2390,2394,2388,2378,2372,2370,2463,2514,2582,2823,2914,3117,3162,3191,3179,3151,3037,2857,2813,2712,2654,2650,2687,2782,2809,2767,2740,2651,2613,2580,2485,2414,2407,2405,2420,2429,2446,2535,2713,2799,2893,3100,3208,3474,3536,3578,3607,3521,3481,3333,3192,3075,2995,2995,3000,3028,3034,3032,3021,2965,2937,2845,2809,2705,2669,2639,2546,2474,2452,2403,2365,2346,2334,2322,2319,2329,2352,2500,2769,2875,2985,3091,3401,3445,3349,3302,3160,3024,2985,2949,2877,2857,2853,2855,2873,2876,2869,2865,2881,2884,2870,2828,2702,2479,2425,2281,2245,2180,2108,2063,2021,1999,1988,1977,1985,2008,2042,2250,2578,2706,2832,3168,3351,3376,3382,3328,3198,3148,3094,2945,2900,2804,2784,2770,2774,2808,2825,2824,2787,2764,2688,2657,2566,2535,2505,2422,2399,2337,2322,2298,2286,2285,2290,2313,2324,2356,2367,2385,2382,2377,2374,2395,2426,2609,2890,2995,3096,3333,3419,3415,3396,3282,3056,2996,2833,2788,2749,2676,2712,2763,2760,2748,2690,2609,2577,2546,2457,2380,2358,2338,2292,2282,2275,2266,2269,2283,2302,2380,2431,2648,2933,3029,3119,3304,3347,3334,3309,3183,3132,2967,2915,2777,2719,2695,2732,2753,2808,2821,2823,2778,2704,2614,2581,2487,2455,2368,2296,2249,2231,2237,2240,2256,2263,2273,2371,2435,2711,3068,3184,3290,3497,3536,3516,3486,3349,3143,3096,2976,2922,2880,2895,2890,2802,2696,2549,2458,2390,2361,2336,2330,2326,2321,2322,2323,2324,2329,2331,2337,2335,2334,2327,2320,2305,2308,2324,2459,2535,2833,2946,3254,3330,3436,3385,3341,3292,3069,2874,2835,2757,2737,2743,2776,2785,2794,2761,2698,2607,2511,2479,2392,2317,2298,2281,2248,2241,2239,2238,2253,2258,2264,2278,2275,2275,2300,2431,2501,2760,3039,3175,3258,3256,3236,3132,2979,2927,2871,2735,2636,2630,2685,2761,2781,2819,2802,2789,2770,2704,2658,2591,2526,2497,2453,2412,2426,2575,2920,3188,3258,3348,3343,3236,3187,3018,2914,2798,2725,2716,2709,2721,2758,2773,2782,2793,2731,2702,2619,2484,2439,2412,2411,2408,2417,2418,2425,2440,2463,2471,2476,2545,2592,2784,3111,3278,3290,3076,2895,2727,2554,2477,2477,2489,2508,2527,2529,2522,2499,2486,2449,2433,2396,2374,2364,2418,2467,2525,2558,2564,2597,2643,2767,2879,3057,3174,3105,3063,2907,2861,2817,2745,2733,2745,2789,2811,2826,2879,2908,2911,2844,2728,2686,2481,2200,2065,2026,2026,2048,2140,2309,2706,2884,2913,2813,2643,2603,2488,2461,2433,2395,2409,2438,2450,2459,2459,2450,2426,2387,2378,2337,2326,2325,2318,2336,2341,2355,2383,2418,2425,2439,2462,2486,2490,2498,2502,2511,2570,2747,3117,3386,3454,3542,3543,3461,3423,3286,3246,3127,3098,3065,2992,2981,2977,2984,2980,2968,2932,2911,2855,2828,2754,2722,2647,2619,2567,2547,2548,2598,2661,2678,2702,2751,2793,2796,2806,2808,2802,2793,2780,2772,2779,2903,3198,3279,3500,3585,3564,3457,3225,3123,3034,3036,3045,3063,3037,2991,2939,2866,2783,2677,2645,2540,2461,2433,2416,2358,2345,2326,2283,2238,2229,2197,2184,2169,2166,2214,2360,2434,2678,2845,3022,3053,2999,2870,2672,2544,2507,2446,2470,2545,2566,2597,2606,2599,2597,2558,2507,2484,2469,2424,2416,2433,2427,2335,2164,2023,1992,2009,2169,2400,2477,2642,2614,2589,2550,2438,2395,2364,2273,2242,2241,2269,2362,2470,2513,2600,2666,2679,2685,2691,2682,2684,2667,2650,2645,2653,2680,2717,2753,2835,3060,3319,3419,3511,3761,3879,3891,3877,3786,3621,3500,3334,3168,3135,3087,3072,3045,3023,3003,2896,2683,2538,2395,2323,2310,2303,2306,2313,2328,2341,2350,2351,2363,2361,2373,2386,2508,2721,2814,2901,3151,3273,3287,3279,3198,3051,2903,2767,2735,2662,2652,2655,2669,2714,2741,2755,2747,2730,2716,2670,2577,2492,2411,2371,2333,2302,2299,2278,2278,2270,2275,2283,2310,2319,2321,2332,2524,2750,3091,3243,3259,3245,3214,3100,3053,2882,2794,2772,2762,2751,2777,2784,2806,2787,2768,2684,2608,2579,2557,2484,2466,2393,2350,2344,2322,2322,2321,2326,2325,2343,2388,2549,2621,2901,2995,3259,3316,3396,3385,3293,3192,3017,2967,2819,2737,2719,2720,2725,2770,2779,2793,2786,2771,2717,2617,2538,2472,2410,2369,2332,2311,2303,2330,2444,2676,2967,3230,3286,3377,3337,3309,3268,3146,3017,2982,2886,2843,2835,2856,2862,2836,2768,2743,2646,2548,2510,2420,2388,2319,2293,2234,2226,2201,2215,2235,2287,2440,2595,2687,2796,3233,3318,3485,3501,3475,3440,3406,3274,3150,3109,3077,3020,2983,2958,2967,2970,2948,2882,2748,2712,2589,2475,2359,2200,2079,1958,1925,1864,1762,1649,1621,1688,1971,2249,2330,2511,2538,2549,2528,2438,2397,2285,2248,2222,2172,2210,2236,2403,2572,2610,2728,2815,2850,2954,2990,3016,3074,3062,3048,3023,2969,2912,2845,2782,2828,2860,3046,3313,3413,3502,3730,3777,3837,3778,3743,3584,3472,3438,3414,3362,3359,3361,3369,3368,3364,3347,3276,3156,3116,2981,2943,2831,2805,2736,2723,2689,2683,2653,2645,2606,2598,2556,2526,2484,2497,2528,2562,2733,2798,2995,3035,3076,2987,2943,2885,2714,2507,2465,2394,2385,2429,2551,2585,2650,2651,2641,2548,2457,2432,2377,2280,2204,2048,1927,1806,1766,1678,1616,1647,1775,1855,2311,2447,2593,2995,3273,3375,3442,3456,3448,3358,3258,3223,3115,3084,2991,2964,2872,2841,2741,2711,2597,2517,2433,2397,2266,2239,2167,2156,2144,2148,2209,2315,2581,2925,3340,3405,3440,3411,3202,3008,2688,2583,2252,2121,2099,2106,2146,2226,2343,2428,2453,2527,2544,2569,2564,2555,2490,2462,2362,2275,2251,2236,2239,2380,2446,2683,2893,2941,2982,2843,2789,2619,2568,2518,2364,2321,2318,2327,2375,2441,2458,2489,2455,2436,2381,2361,2346,2303,2299,2292,2299,2308,2308,2307,2309,2308,2312,2405,2602,2887,3091,3327,3405,3414,3285,3111,3069,2983,2947,2948,2983,3000,2990,2888,2804,2737,2713,2694,2621,2548,2520,2499,2434,2393,2369,2362,2359,2364,2402,2442,2494,2847,3188,3291,3509,3528,3498,3234,3143,2840,2729,2403,2131,1995,2011,2048,2194,2343,2379,2414,2487,2551,2573,2671,2712,2761,2932,3063,3262,3436,3488,3615,3666,3859,3967,4056,4066,4066,4065,4043,4019,3895,3590,3495,3229,2998,2950,2926,2910,2855,2828,2794,2625,2486,2437,2392,2262,2161,2131,2105,2027,1941,1924,1871,1865,1894,2148,2557,2829,2891,2933,2973,2903,2866,2822,2680,2534,2442,2328,2298,2277,2243,2262,2291,2330,2346,2343,2331,2299,2232,2203,2181,2187,2237,2257,2311,2342,2371,2462,2636,3055,3251,3322,3267,3172,3066,2969,2896,2868,2857,2858,2851,2813,2728,2651,2611,2482,2368,2334,2241,2190,2182,2149,2127,2119,2120,2135,2146,2209,2255,2311,2551,2857,2964,3062,3276,3331,3310,3198,3037,2921,2756,2637,2602,2641,2666,2742,2785,2786,2707,2586,2491,2461,2378,2311,2291,2226,2206,2229,2362,2723,3050,3296,3345,3366,3254,3204,2978,2921,2813,2726,2648,2643,2672,2727,2741,2751,2676,2647,2579,2508,2474,2378,2283,2267,2222,2172,2161,2127,2095,2092,2112,2318,2636,2762,2893,3268,26
2605,2595,2588,2582,2586,2584,2616,2693,2717,2720,2706,2666,2620,2579,2514,2482,2456,2451,2457,2462,2473,2471,2480,2488,2499,2533,2606,2631,2647,2702,2711,2752,2760,2795,2810,2816,2798,2762,2732,2692,2662,2628,2624,2598,2599,2587,2587,2583,2579,2578,2566,2568,2561,2565,2560,2564,2560,2565,2562,2603,2647,2709,2723,2765,2766,2772,2753,2750,2724,2721,2698,2688,2684,2682,2676,2682,2680,2671,2667,2660,2653,2645,2639,2632,2634,2621,2624,2626,2674,2697,2710,2772,2810,2823,2822,2823,2802,2799,2786,2772,2757,2755,2743,2732,2726,2718,2717,2712,2718,2714,2719,2713,2711,2702,2692,2682,2682,2670,2675,2676,2687,2694,2706,2738,2758,2804,2826,2874,2881,2875,2877,2868,2850,2838,2815,2803,2782,2770,2755,2733,2733,2714,2694,2686,2666,2665,2643,2631,2622,2622,2617,2600,2598,2612,2635,2652,2691,2729,2730,2740,2732,2732,2709,2704,2670,2662,2622,2570,2561,2546,2514,2484,2482,2474,2473,2484,2484,2503,2503,2514,2518,2526,2527,2539,2596,2685,2741,2778,2791,2789,2794,2792,2804,2807,2812,2801,2800,2782,2779,2756,2743,2733,2729,2717,2695,2664,2660,2630,2611,2611,2607,2615,2653,2664,2710,2744,2743,2742,2742,2722,2712,2690,2688,2669,2669,2657,2655,2655,2646,2635,2630,2628,2624,2633,2634,2639,2646,2663,2677,2685,2714,2777,2794,2798,2784,2773,2753,2741,2721,2711,2700,2693,2694,2690,2689,2684,2681,2675,2675,2663,2658,2651,2653,2643,2645,2659,2700,2715,2770,2808,2818,2820,2820,2807,2794,2767,2762,2742,2740,2727,2728,2726,2723,2722,2710,2703,2691,2683,2672,2664,2655,2650,2645,2643,2667,2708,2727,2776,2810,2811,2815,2803,2782,2770,2764,2736,2718,2710,2708,2699,2700,2697,2697,2696,2692,2687,2680,2666,2658,2650,2648,2637,2636,2632,2625,2625,2622,2639,2680,2696,2753,2769,2803,2806,2809,2800,2782,2773,2751,2743,2724,2717,2705,2701,2700,2692,2690,2679,2675,2657,2644,2640,2630,2628,2621,2620,2617,2617,2615,2618,2620,2649,2663,2734,2794,2808,2789,2780,2756,2732,2715,2703,2701,2695,2693,2686,2675,2658,2639,2627,2625,2615,2613,2608,2607,2606,2622,2666,2722,2740,2787,2804,2798,2772,2738,2717,2710,2705,2697,2695,2695,2692,2683,2679,2663,2649,2645,2635,2627,2624,2616,2616,2616,2631,2686,2703,2722,2767,2790,2780,2773,2750,2742,2721,2714,2701,2701,2700,2700,2699,2688,2684,2668,2656,2645,2634,2631,2624,2619,2620,2632,2666,2683,2738,2799,2807,2810,2808,2788,2781,2772,2750,2737,2719,2710,2712,2707,2703,2699,2697,2683,2670,2664,2653,2639,2632,2632,2624,2624,2620,2623,2640,2654,2698,2719,2770,2786,2795,2812,2798,2789,2771,2760,2743,2724,2717,2714,2707,2708,2703,2703,2691,2674,2659,2651,2645,2645,2634,2634,2632,2629,2625,2629,2650,2676,2742,2782,2791,2794,2776,2773,2765,2746,2725,2723,2716,2711,2704,2706,2702,2699,2681,2662,2649,2641,2641,2626,2628,2622,2616,2610,2612,2612,2637,2646,2712,2765,2774,2785,2792,2784,2774,2756,2745,2741,2731,2717,2703,2698,2697,2691,2685,2677,2662,2645,2645,2638,2625,2620,2615,2616,2607,2604,2599,2602,2602,2632,2644,2719,2777,2787,2807,2800,2775,2764,2737,2722,2713,2697,2692,2686,2687,2674,2673,2658,2643,2642,2635,2628,2616,2612,2609,2603,2597,2595,2593,2593,2626,2637,2658,2711,2763,2770,2782,2781,2773,2764,2741,2727,2718,2707,2699,2699,2683,2679,2671,2661,2644,2644,2628,2628,2619,2613,2606,2609,2603,2606,2600,2602,2600,2598,2634,2687,2700,2756,2772,2767,2749,2748,2726,2714,2706,2694,2697,2688,2688,2682,2665,2656,2646,2630,2631,2618,2622,2615,2619,2614,2613,2618,2619,2617,2641,2697,2708,2759,2779,2782,2778,2769,2768,2748,2729,2715,2711,2708,2703,2692,2692,2674,2673,2653,2634,2634,2619,2610,2614,2610,2602,2606,2600,2605,2615,2630,2637,2682,2708,2730,2736,2729,2729,2705,2687,2676,2652,2644,2636,2636,2629,2628,2621,2617,2609,2607,2603,2595,2596,2594,2589,2593,2590,2595,2594,2599,2598,2604,2601,2622,2675,2689,2747,2796,2797,2801,2783,2782,2773,2761,2752,2752,2737,2736,2732,2733,2734,2728,2722,2699,2700,2684,2678,2670,2671,2660,2662,2655,2658,2658,2668,2671,2710,2749,2768,2776,2805,2801,2802,2793,2781,2757,2756,2745,2735,2726,2716,2719,2713,2711,2704,2700,2691,2684,2676,2671,2663,2665,2653,2656,2646,2648,2637,2640,2631,2636,2643,2694,2760,2779,2799,2807,2799,2781,2772,2761,2738,2735,2725,2727,2720,2716,2700,2692,2675,2675,2662,2660,2657,2650,2652,2649,2644,2657,2661,2674,2711,2762,2771,2786,2799,2803,2788,2786,2763,2760,2740,2740,2726,2727,2722,2723,2713,2706,2688,2677,2660,2659,2645,2641,2637,2638,2633,2634,2630,2633,2632,2656,2664,2711,2725,2771,2787,2787,2787,2767,2763,2740,2737,2719,2707,2704,2702,2696,2683,2668,2660,2653,2642,2635,2626,2622,2622,2649,2713,2761,2795,2795,2795,2778,2760,2752,2748,2728,2715,2709,2698,2698,2693,2688,2673,2658,2649,2643,2642,2636,2631,2623,2623,2617,2613,2608,2605,2602,2612,2617,2657,2673,2730,2745,2772,2791,2783,2763,2741,2727,2720,2709,2710,2703,2703,2691,2677,2669,2660,2643,2640,2634,2635,2633,2634,2625,2618,2624,2628,2665,2716,2736,2780,2791,2796,2793,2778,2769,2752,2744,2732,2726,2723,2716,2713,2709,2708,2698,2694,2678,2674,2659,2656,2650,2640,2633,2632,2631,2630,2628,2629,2628,2627,2622,2623,2624,2657,2706,2761,2777,2809,2799,2793,2775,2757,2751,2737,2733,2724,2721,2715,2700,2679,2672,2658,2644,2640,2626,2624,2623,2624,2623,2620,2618,2616,2618,2632,2672,2689,2745,2799,2804,2803,2798,2781,2762,2744,2739,2725,2715,2715,2713,2709,2700,2698,2682,2655,2641,2627,2622,2620,2620,2618,2619,2618,2618,2615,2615,2623,2659,2674,2734,2770,2785,2812,2807,2802,2779,2750,2745,2730,2720,2719,2719,2716,2714,2707,2702,2682,2670,2649,2639,2630,2625,2623,2622,2621,2621,2620,2620,2627,2662,2735,2787,2817,2817,2801,2770,2764,2741,2736,2729,2720,2714,2715,2713,2711,2699,2682,2678,2663,2659,2652,2643,2631,2626,2623,2619,2614,2613,2617,2640,2691,2709,2732,2784,2815,2806,2798,2793,2766,2743,2731,2712,2703,2699,2696,2682,2665,2648,2646,2639,2628,2619,2618,2613,2608,2609,2602,2604,2625,2636,2694,2737,2789,2817,2815,2792,2756,2734,2724,2711,2712,2707,2707,2703,2703,2687,2685,2667,2648,2641,2635,2626,2620,2621,2612,2621,2667,2720,2759,2800,2803,2803,2779,2756,2743,2716,2704,2707,2705,2709,2702,2687,2685,2663,2660,2640,2639,2632,2623,2617,2611,2614,2611,2614,2613,2620,2646,2681,2747,2765,2819,2825,2834,2826,2807,2794,2771,2743,2733,2723,2725,2723,2714,2695,2693,2670,2656,2646,2644,2626,2622,2615,2616,2613,2608,2611,2606,2613,2615,2655,2710,2736,2794,2830,2828,2831,2807,2796,2773,2761,2742,2732,2730,2715,2714,2710,2711,2702,2695,2674,2651,2651,2633,2633,2626,2624,2617,2619,2608,2626,2739,2832,2834,2800,2766,2745,2727,2719,2721,2711,2693,2669,2668,2648,2632,2622,2612,2614,2637,2703,2792,2814,2795,2776,2733,2720,2713,2707,2701,2678,2654,2639,2622,2610,2599,2591,2596,2648,2735,2762,2777,2818,2818,2819,2810,2785,2749,2742,2732,2725,2719,2696,2669,2658,2642,2623,2614,2609,2599,2603,2600,2594,2605,2608,2666,2735,2752,2776,2813,2822,2815,2814,2788,2769,2756,2753,2730,2724,2712,2713,2707,2704,2685,2673,2660,2640,2639,2630,2623,2612,2602,2605,2599,2594,2596,2600,2625,2703,2730,2787,2822,2820,2824,2805,2786,2773,2768,2742,2741,2723,2724,2715,2712,2699,2689,2667,2646,2636,2630,2624,2615,2599,2595,2650,2732,2813,2804,2779,2748,2734,2715,2714,2707,2705,2678,2677,2653,2642,2631,2615,2617,2610,2609,2600,2603,2596,2589,2593,2587,2603,2637,2678,2751,2767,2789,2817,2820,2812,2787,2758,2738,2725,2713,2715,2707,2696,2673,2671,2645,2625,2625,2617,2606,2605,2598,2602,2594,2598,2588,2590,2581,2595,2632,2700,2796,2819,2814,2805,2794,2775,2739,2729,2722,2719,2710,2703,2693,2671,2669,2658,2643,2623,2615,2614,2603,2604,2596,2594,2597,2592,2594,2587,2580,2583,2598,2652,2718,2785,2797,2821,2816,2816,2791,2756,2752,2730,2721,2717,2711,2701,2691,2688,2661,2635,2626,2618,2608,2609,2607,2602,2598,2599,2593,2597,2610,2648,2737,2800,2822,2826,2803,2775,2758,2740,2732,2725,2720,2721,2717,2713,2691,2667,2664,2649,2626,2619,2610,2604,2597,2597,2595,2598,2594,2593,2593,2593,2615,2673,2693,2769,2840,2826,2821,2786,2760,2746,2733,2729,2728,2720,2719,2711,2688,2672,2658,2637,2634,2617,2603,2604,2595,2594,2590,2592,2587,2583,2585,2583,2591,2620,2640,2703,2730,2751,2816,2823,2825,2804,2788,2765,2741,2739,2724,2718,2722,2718,2717,2704,2702,2695,2678,2657,2654,2646,2625,2611,2606,2603,2600,2597,2599,2595,2596,2599,2634,2689,2714,2776,2817,2819,2821,2799,2782,2751,2731,2723,2716,2716,2718,2714,2707,2700,2696,2686,2662,2643,2633,2627,2621,2612,2612,2608,2606,2609,2609,2647,2684,2749,2789,2822,2821,2802,2791,2768,2758,2741,2728,2728,2725,2725,2721,2707,2701,2687,2669,2667,2659,2642,2634,2629,2624,2618,2615,2612,2611,2609,2632,2662,2683,2745,2800,2822,2822,2800,2794,2771,2746,2742,2732,2728,2724,2719,2714,2704,2693,2675,2660,2651,2648,2639,2636,2633,2629,2625,2625,2617,2625,2655,2710,2783,2795,2816,2809,2806,2772,2767,2750,2742,2738,2738,2734,2731,2727,2716,2695,2687,2674,2660,2652,2645,2644,2639,2636,2633,2631,2647,2659,2703,2756,2769,2800,2802,2805,2794,2781,2773,2769,2749,2738,2738,2734,2723,2698,2675,2647,2639,2628,2623,2621,2615,2633,2673,2692,2710,2768,2809,2809,2798,2791,2786,2770,2758,2752,2750,2741,2738,2734,2733,2723,2720,2703,2691,2674,2667,2656,2646,2634,2630,2623,2620,2613,2609,2604,2603,2601,2603,2638,2712,2768,2804,2791,2768,2743,2735,2723,2709,2688,2669,2646,2634,2621,2614,2610,2605,2602,12
2669,2707,2726,2741,2774,2774,2752,2732,2630,2545,2515,2443,2419,2386,2374,2361,2344,2340,2342,2350,2369,2372,2379,2402,2423,2487,2533,2593,2819,3151,3215,3305,3307,3221,3177,3124,2959,2810,2774,2740,2684,2686,2700,2746,2764,2792,2792,2761,2698,2651,2630,2565,2518,2494,2470,2455,2456,2454,2457,2470,2554,2607,2824,2915,3185,3263,3324,3404,3347,3304,3004,2841,2795,2703,2664,2665,2675,2683,2685,2672,2641,2579,2499,2427,2403,2348,2333,2309,2304,2296,2293,2301,2312,2318,2351,2360,2408,2561,2767,3013,3205,3245,3260,3237,3101,2921,2855,2797,2606,2561,2550,2552,2635,2689,2680,2617,2514,2426,2369,2353,2355,2354,2352,2327,2319,2316,2334,2351,2369,2617,2854,2943,3171,3229,3292,3191,3143,2961,2782,2638,2575,2586,2607,2667,2707,2703,2696,2627,2600,2565,2451,2401,2386,2381,2352,2338,2328,2321,2318,2336,2342,2386,2407,2534,2738,2998,3078,3289,3286,3251,3044,2872,2688,2615,2611,2614,2629,2663,2676,2676,2672,2617,2547,2467,2406,2385,2348,2323,2324,2320,2326,2335,2345,2346,2368,2375,2383,2383,2436,2468,2653,2732,3020,3109,3327,3385,3372,3248,3078,2906,2815,2725,2681,2714,2708,2641,2518,2440,2397,2400,2433,2447,2461,2463,2483,2572,2774,3038,3132,3378,3402,3384,3271,3209,3151,2958,2678,2633,2630,2660,2669,2654,2582,2554,2482,2407,2357,2320,2310,2310,2312,2328,2353,2355,2366,2377,2431,2460,2632,2797,3081,3178,3381,3421,3417,3297,3235,3178,3109,2871,2745,2703,2617,2546,2532,2508,2462,2444,2436,2401,2388,2381,2396,2398,2426,2427,2443,2438,2424,2408,2359,2333,2267,2240,2174,2176,2226,2416,2500,2948,3280,3472,3516,3424,3277,3169,3020,2924,2897,2887,2857,2839,2793,2726,2672,2621,2613,2597,2558,2538,2524,2493,2477,2465,2438,2418,2408,2417,2425,2546,2695,2991,3397,3565,3575,3576,3473,3423,3230,3171,2956,2848,2832,2813,2796,2801,2797,2802,2783,2773,2751,2637,2541,2506,2438,2419,2400,2393,2395,2382,2362,2318,2290,2281,2299,2308,2387,2490,2654,2889,3129,3300,3336,3292,3189,3100,2957,2761,2724,2674,2652,2690,2728,2750,2739,2705,2595,2568,2534,2473,2447,2416,2329,2300,2295,2302,2321,2413,2423,2388,2345,2321,2379,2599,3123,3321,3329,3302,3252,3066,2842,2777,2710,2610,2523,2556,2601,2643,2668,2654,2640,2611,2514,2471,2370,2338,2297,2303,2321,2354,2402,2430,2423,2383,2353,2328,2267,2223,2259,2319,2502,2766,3229,3382,3626,3769,3764,3564,3467,3373,3072,2838,2776,2733,2652,2657,2685,2698,2728,2751,2741,2724,2684,2577,2553,2522,2473,2434,2422,2388,2383,2383,2391,2401,2411,2411,2430,2435,2442,2502,2606,2861,3304,3549,3603,3544,3366,3148,3083,2911,2808,2783,2772,2762,2772,2777,2802,2794,2786,2768,2699,2667,2574,2539,2511,2427,2370,2353,2328,2321,2320,2320,2337,2341,2363,2376,2398,2473,2525,2749,2849,3160,3258,3448,3462,3426,3381,3186,2976,2852,2714,2662,2640,2642,2676,2700,2704,2698,2662,2638,2559,2443,2393,2331,2304,2297,2287,2282,2287,2310,2323,2380,2517,2594,2679,3003,3322,3467,3530,3365,3296,3092,2860,2748,2694,2696,2712,2720,2722,2718,2669,2591,2530,2384,2326,2290,2281,2285,2292,2305,2321,2337,2341,2392,2544,2626,2822,3046,3424,3512,3425,3367,3166,3030,2964,2852,2710,2694,2672,2681,2703,2699,2691,2634,2580,2492,2432,2356,2294,2286,2276,2274,2279,2281,2302,2314,2330,2336,2349,2415,2521,2781,2889,2999,3308,3472,3484,3398,3206,3130,3058,2852,2709,2676,2654,2626,2657,2697,2712,2707,2664,2640,2556,2525,2440,2413,2351,2335,2308,2304,2309,2313,2343,2351,2368,2373,2412,2547,2617,2893,2996,3279,3345,3393,3424,3329,3132,2910,2726,2639,2576,2576,2616,2635,2676,2675,2647,2573,2452,2423,2349,2329,2279,2272,2274,2288,2316,2323,2331,2389,2551,2633,2726,3052,3355,3477,3507,3436,3273,3097,3044,2917,2826,2815,2811,2815,2828,2828,2824,2778,2752,2644,2517,2474,2434,2307,2256,2246,2240,2239,2253,2259,2279,2285,2296,2300,2378,2428,2493,2772,3121,3330,3518,3433,3374,3154,2929,2862,2803,2709,2674,2620,2642,2656,2700,2691,2659,2583,2463,2435,2361,2312,2301,2285,2286,2287,2306,2326,2333,2337,2354,2412,2455,2510,2764,3093,3301,3494,3513,3450,3394,3179,3099,3022,2810,2669,2639,2609,2614,2661,2679,2722,2726,2706,2688,2668,2580,2550,2455,2379,2357,2342,2305,2297,2297,2302,2317,2339,2371,2477,2693,2791,3111,3383,3484,3404,3200,3040,2820,2756,2659,2599,2585,2594,2655,2674,2696,2721,2700,2656,2598,2439,2415,2369,2316,2308,2306,2312,2326,2338,2372,2452,2510,2771,3097,3302,3484,3468,3430,3236,3014,2941,2879,2723,2662,2645,2633,2669,2680,2706,2677,2654,2577,2515,2426,2402,2338,2305,2297,2295,2295,2302,2325,2382,2416,2529,2796,3010,3116,3378,3463,3453,3319,3188,2984,2810,2768,2728,2658,2639,2647,2666,2679,2670,2655,2597,2568,2483,2377,2353,2307,2281,2278,2290,2292,2313,2317,2338,2376,2454,2762,2868,3176,3267,3391,3419,3301,3106,3043,2862,2740,2708,2689,2659,2676,2681,2692,2699,2676,2611,2532,2501,2400,2363,2330,2313,2323,2357,2376,2405,2738,3215,3398,3339,3170,2920,2818,2718,2672,2685,2714,2728,2725,2710,2626,2546,2513,2443,2404,2360,2349,2361,2362,2383,2384,2401,2401,2441,2465,2628,2791,3072,3240,3378,3380,3302,3129,3071,2891,2729,2678,2669,2694,2699,2661,2647,2569,2515,2493,2418,2369,2352,2332,2324,2325,2323,2338,2357,2357,2371,2368,2373,2372,2425,2459,2514,2733,3110,3195,3335,3350,3283,3242,3076,3025,2873,2798,2728,2710,2695,2694,2708,2700,2697,2648,2583,2500,2434,2377,2368,2353,2348,2330,2338,2344,2364,2363,2369,2441,2480,2539,2758,3018,3089,3157,3254,3262,3235,3175,3066,3036,2945,2926,2901,2864,2837,2836,2804,2740,2673,2529,2468,2302,2161,2134,2110,2120,2183,2215,2240,2345,2401,2409,2436,2439,2383,2309,2291,2250,2348,2410,2496,2921,3227,3360,3427,3347,3305,3137,3085,2925,2845,2757,2747,2758,2763,2756,2714,2700,2634,2616,2590,2536,2488,2468,2466,2451,2458,2455,2469,2476,2483,2480,2489,2483,2485,2478,2478,2495,2590,2794,2874,2967,3214,3369,3390,3375,3282,3135,3092,3041,2927,2891,2830,2813,2803,2800,2812,2802,2799,2783,2735,2660,2639,2610,2546,2481,2465,2449,2439,2448,2454,2462,2467,2477,2473,2478,2492,2588,2636,2702,2934,3185,3246,3302,3358,3352,3246,3202,3038,2990,2854,2824,2753,2746,2737,2748,2766,2775,2765,2742,2684,2580,2550,2530,2486,2414,2411,2403,2406,2412,2419,2433,2438,2516,2559,2619,2847,2940,3198,3269,3379,3296,3195,3028,2834,2738,2722,2705,2712,2726,2731,2710,2660,2632,2556,2452,2427,2379,2346,2344,2338,2344,2353,2367,2377,2389,2422,2522,2738,3129,3367,3418,3446,3337,3154,2978,2831,2798,2720,2710,2698,2702,2713,2719,2704,2676,2612,2525,2500,2468,2398,2343,2334,2320,2309,2317,2319,2340,2343,2367,2382,2383,2397,2475,2593,2861,2961,3265,3444,3469,3415,3254,3185,3121,2928,2790,2755,2733,2697,2712,2744,2764,2758,2723,2698,2619,2585,2465,2395,2357,2322,2313,2327,2330,2339,2355,2373,2381,2429,2582,2653,2743,3138,3358,3401,3364,3314,3123,2912,2851,2792,2668,2615,2645,2679,2719,2709,2698,2627,2600,2503,2476,2444,2371,2349,2310,2298,2290,2289,2303,2306,2333,2346,2509,2758,3064,3323,3414,3293,3233,3095,2824,2674,2601,2591,2611,2658,2675,2699,2699,2689,2610,2522,2489,2460,2373,2312,2273,2263,2267,2274,2294,2307,2377,2561,2647,2748,3084,3197,3453,3501,3508,3363,3145,2936,2773,2735,2653,2661,2683,2714,2714,2707,2676,2603,2507,2444,2365,2306,2294,2282,2268,2271,2277,2281,2303,2308,2340,2360,2499,2571,2866,2979,3310,3464,3533,3515,3426,3295,2997,2811,2726,2656,2660,2695,2712,2706,2630,2538,2508,2416,2391,2365,2310,2278,2271,2280,2302,2316,2335,2428,2617,2807,3136,3401,3453,3477,3445,3265,3190,2954,2882,2706,2665,2591,2638,2657,2705,2711,2687,2618,2526,2466,2384,2325,2313,2288,2286,2289,2293,2297,2323,2444,2505,2670,3094,3198,3424,3471,3394,3203,3129,2912,2789,2665,2640,2614,2645,2660,2675,2702,2701,2664,2641,2513,2409,2377,2302,2283,2269,2250,2258,2263,2271,2331,2472,2637,2963,3387,3526,3420,3357,3125,2882,2673,2524,2490,2442,2440,2462,2471,2485,2417,2336,2247,2178,2138,2130,2143,2173,2265,2379,2552,2907,3507,3584,3671,3681,3598,3414,3269,3198,3069,2881,2850,2822,2783,2749,2750,2781,2873,2973,2990,3007,2968,2948,2922,2841,2738,2716,2676,2682,2850,3103,3203,3300,3546,3636,3628,3599,3376,3157,2951,2895,2763,2735,2690,2697,2705,2706,2694,2677,2604,2487,2400,2277,2142,2118,2115,2118,2118,2149,2173,2324,2479,2755,2847,3039,3083,3031,2879,2698,2635,2579,2428,2344,2328,2329,2336,2351,2382,2394,2366,2276,2178,2063,2029,1934,1912,1864,1859,1854,1864,1869,1946,1994,2239,2345,2726,2852,3173,3325,3310,3132,2934,2862,2683,2632,2595,2521,2516,2531,2548,2589,2604,2600,2549,2476,2419,2335,2260,2244,2242,2242,2260,2274,2284,2291,2371,2563,2657,2756,3087,3348,3403,3432,3403,3354,3073,2904,2657,2579,2357,2302,2332,2426,2456,2551,2590,2601,2569,2546,2526,2435,2387,2383,2380,2417,2434,2496,2538,2649,2803,3091,3288,3378,3536,3535,3500,3458,3279,3089,3027,2880,2840,2771,2759,2783,2846,2861,2871,2869,2822,2805,2757,2705,2621,2599,2526,2508,2427,2381,2384,2444,2491,2542,2758,2972,3031,3069,3115,3040,3004,2956,2819,2690,2611,2578,2610,2624,2648,2699,2737,2731,2674,2606,2575,2497,2470,2415,2383,2340,2334,2321,2330,2416,2692,2868,3109,3205,3231,3150,2879,2770,2600,2577,2528,2525,2553,2575,2585,2583,2577,2536,2524,2502,2453,2391,2374,2342,2340,2341,2411,2448,2504,2702,2943,3074,3118,3181,3119,3084,2933,2773,2715,2671,2550,2530,2499,2515,2556,2596,2598,2598,2586,2527,2469,2442,2402,2361,2342,2399,2434,2622,2696,2964,3044,3237,3290,6
2270,2237,2199,2196,2182,2178,2169,2163,2143,2144,2177,2345,2536,2773,2897,3025,3328,3397,3465,3436,3325,3184,3142,3014,2978,2910,2878,2856,2830,2787,2747,2735,2714,2648,2615,2525,2490,2410,2382,2344,2332,2297,2294,2286,2286,2286,2282,2278,2279,2260,2243,2232,2232,2239,2293,2487,2586,2917,3239,3408,3412,3298,3253,3092,3047,2998,2886,2806,2795,2781,2768,2768,2739,2730,2708,2634,2526,2427,2369,2339,2320,2285,2239,2240,2240,2248,2244,2239,2229,2225,2216,2225,2285,2335,2412,2720,2849,3224,3335,3533,3562,3565,3532,3503,3372,3280,3151,3031,3001,2908,2889,2866,2817,2754,2734,2703,2612,2474,2439,2364,2309,2302,2289,2279,2274,2278,2275,2274,2272,2274,2261,2248,2238,2237,2226,2205,2194,2193,2191,2292,2354,2444,2933,3070,3448,3648,3675,3674,3636,3561,3472,3428,3375,3243,3112,3075,3034,2912,2850,2825,2761,2729,2705,2638,2570,2500,2462,2436,2353,2306,2290,2286,2264,2265,2261,2265,2257,2255,2246,2246,2234,2223,2212,2199,2180,2170,2163,2198,2366,2569,2980,3118,3495,3575,3699,3638,3599,3545,3386,3223,3180,3130,3025,2992,2942,2925,2909,2906,2891,2847,2816,2756,2605,2500,2412,2397,2352,2345,2339,2346,2349,2360,2354,2358,2336,2332,2317,2293,2280,2339,2382,2526,2624,2952,3071,3171,3337,3426,3424,3387,3297,3249,3076,3029,2974,2858,2803,2757,2754,2746,2746,2729,2696,2648,2613,2586,2521,2422,2350,2294,2270,2252,2262,2265,2273,2269,2270,2254,2252,2241,2244,2392,2475,2837,2976,3400,3510,3722,3742,3705,3565,3518,3460,3308,3129,3087,2998,2954,2919,2863,2797,2588,2476,2396,2336,2327,2298,2291,2285,2288,2281,2283,2278,2274,2257,2254,2243,2208,2194,2203,2268,2403,2735,2863,3265,3539,3593,3617,3618,3565,3529,3385,3247,3159,3038,2974,2907,2852,2800,2752,2654,2583,2482,2390,2371,2346,2315,2295,2287,2282,2283,2288,2283,2277,2264,2249,2235,2222,2222,2325,2386,2672,2784,3142,3386,3433,3452,3426,3251,3196,3055,3009,2974,2861,2820,2802,2724,2591,2453,2324,2297,2294,2293,2287,2279,2325,2560,2647,2966,3247,3317,3361,3401,3379,3352,3220,3077,2941,2842,2754,2734,2654,2532,2432,2340,2277,2235,2220,2215,2215,2211,2213,2210,2233,2348,2420,2936,3257,3333,3454,3456,3422,3355,3223,3175,3084,3002,2893,2859,2793,2745,2704,2638,2613,2520,2431,2402,2380,2321,2289,2280,2266,2265,2265,2260,2249,2246,2239,2230,2224,2215,2205,2205,2202,2199,2196,2193,2199,2209,2340,2636,2771,3217,3364,3494,3806,3807,3738,3590,3387,3342,3253,3210,3105,3023,2961,2887,2860,2755,2717,2519,2426,2398,2347,2316,2312,2303,2304,2296,2289,2277,2253,2231,2205,2183,2174,2153,2146,2180,2448,2557,2956,3226,3516,3609,3598,3573,3431,3256,3197,3144,3002,2910,2888,2876,2853,2836,2810,2731,2698,2660,2579,2500,2396,2321,2305,2271,2263,2262,2263,2264,2262,2249,2223,2216,2212,2256,2302,2366,2658,3171,3288,3526,3576,3556,3524,3436,3329,3167,2987,2895,2856,2824,2814,2778,2737,2644,2608,2496,2394,2365,2282,2250,2243,2234,2232,2230,2226,2223,2221,2202,2178,2186,2301,2590,2860,3297,3679,3728,3631,3476,3260,3208,3073,2968,2941,2916,2860,2779,2750,2653,2613,2576,2459,2359,2329,2305,2265,2215,2206,2202,2195,2191,2184,2183,2175,2170,2168,2163,2161,2148,2146,2129,2121,2133,2159,2357,2878,3034,3477,3746,3787,3802,3773,3694,3533,3475,3310,3259,3048,2962,2901,2878,2808,2777,2708,2630,2505,2462,2356,2324,2299,2238,2205,2203,2198,2201,2197,2194,2188,2180,2172,2157,2130,2110,2153,2203,2269,2591,3021,3425,3638,3647,3613,3464,3288,3234,3178,3044,3007,2927,2908,2877,2868,2861,2813,2730,2692,2656,2534,2428,2396,2374,2317,2291,2293,2293,2298,2296,2293,2272,2266,2255,2263,2377,2451,2534,2741,3186,3390,3409,3388,3246,3074,2964,2828,2754,2738,2730,2727,2726,2715,2664,2634,2540,2502,2406,2326,2283,2262,2263,2271,2281,2288,2290,2286,2279,2281,2319,2366,2422,2710,3089,3445,3625,3624,3588,3454,3291,3244,3192,3103,3066,2958,2935,2907,2837,2824,2759,2675,2637,2604,2493,2404,2356,2305,2277,2273,2277,2274,2276,2267,2267,2261,2245,2219,2218,2215,2244,2338,2609,2722,2977,3538,3566,3514,3388,3210,3171,3049,2952,2921,2860,2839,2789,2764,2687,2652,2621,2553,2516,2486,2400,2383,2334,2328,2309,2311,2304,2308,2304,2306,2303,2289,2276,2251,2247,2218,2252,2298,2520,2998,3128,3421,3521,3541,3530,3500,3382,3236,3193,3144,3023,2982,2953,2868,2822,2775,2718,2627,2599,2498,2427,2404,2393,2360,2359,2352,2359,2358,2363,2358,2357,2340,2327,2311,2284,2280,2266,2242,2234,2250,2416,2499,2607,2967,3320,3401,3538,3529,3416,3374,3212,3071,3022,2917,2838,2797,2752,2741,2665,2640,2531,2500,2393,2298,2289,2260,2258,2266,2270,2279,2278,2283,2273,2275,2266,2253,2223,2221,2210,2248,2419,2520,2887,3411,3636,3656,3639,3512,3371,3224,3097,2977,2950,2869,2815,2789,2771,2653,2614,2464,2370,2339,2294,2264,2242,2233,2234,2228,2229,2213,2212,2190,2176,2167,2167,2149,2142,2134,2136,2141,2269,2447,2838,3428,3550,3713,3774,3716,3678,3522,3471,3313,3270,3135,3100,3000,2941,2883,2815,2708,2672,2542,2506,2462,2370,2301,2290,2262,2261,2258,2266,2262,2259,2241,2226,2196,2197,2233,2640,2903,3178,3500,3571,3631,3608,3466,3409,3216,3160,3098,2921,2854,2837,2824,2804,2796,2727,2657,2579,2541,2417,2386,2348,2325,2261,2239,2231,2235,2245,2254,2261,2261,2262,2253,2220,2200,2198,2304,2374,2722,3018,3452,3572,3774,3774,3644,3480,3262,3167,3120,3084,2961,2894,2880,2856,2787,2680,2643,2598,2479,2367,2342,2312,2261,2222,2225,2221,2221,2205,2204,2180,2162,2149,2131,2106,2159,2393,2795,2959,3431,3567,3672,3847,3724,3438,3223,3086,2990,2961,2878,2815,2784,2646,2610,2490,2392,2360,2339,2284,2262,2254,2255,2250,2252,2248,2244,2237,2221,2207,2197,2180,2174,2192,2468,2856,2999,3597,3650,3680,3555,3499,3435,3247,3042,2920,2882,2879,2873,2858,2782,2753,2714,2589,2542,2500,2380,2299,2276,2240,2230,2233,2240,2244,2240,2219,2203,2226,2471,2573,2960,3438,3510,3605,3530,3486,3319,3154,3008,2907,2836,2824,2800,2785,2729,2629,2593,2551,2516,2403,2321,2297,2257,2247,2236,2234,2241,2241,2251,2255,2250,2238,2230,2220,2227,2353,2530,2910,3335,3557,3631,3728,3656,3563,3409,3256,3165,3047,2955,2934,2911,2858,2797,2774,2743,2643,2603,2567,2459,2373,2348,2331,2287,2267,2256,2248,2233,2229,2208,2202,2195,2174,2150,2143,2136,2152,2295,2382,2486,2876,3284,3398,3488,3622,3582,3547,3411,3366,3319,3188,3107,3004,2904,2854,2836,2741,2602,2562,2421,2343,2277,2264,2262,2257,2234,2200,2176,2390,2828,3276,3402,3259,3016,2855,2742,2717,2683,2683,2681,2664,2629,2503,2430,2278,2257,2219,2208,2212,2214,2227,2231,2234,2244,2289,2324,2373,2605,2925,3035,3142,3375,3435,3328,3274,2989,2832,2838,2888,2827,2617,2485,2349,2303,2275,2289,2475,3037,3292,3207,3053,2835,2789,2716,2656,2673,2693,2662,2586,2553,2452,2419,2391,2321,2306,2263,2245,2245,2313,2514,2723,3094,3402,3472,3519,3547,3455,3415,3369,3232,3184,3140,2998,2871,2832,2800,2701,2638,2618,2533,2436,2400,2370,2275,2252,2194,2184,2154,2152,2141,2136,2127,2145,2270,2521,2630,2965,3067,3274,3312,3294,3263,3163,3044,3006,2881,2766,2671,2592,2540,2515,2444,2387,2274,2202,2187,2142,2119,2111,2098,2093,2089,2074,2065,2072,2148,2270,2545,2962,3044,3226,3222,3201,3121,2993,2891,2863,2829,2756,2715,2662,2648,2587,2485,2459,2370,2299,2273,2224,2180,2168,2164,2141,2139,2130,2113,2088,2086,2064,2047,2051,2087,2123,2284,2363,2618,2709,2922,2976,3053,3065,3044,3002,2941,2867,2831,2820,2808,2798,2785,2772,2734,2712,2656,2632,2580,2560,2523,2493,2479,2465,2454,2449,2442,2436,2428,2420,2411,2410,2401,2384,2404,2420,2542,2720,2792,2971,3019,3083,3090,3081,3042,3000,2933,2885,2868,2846,2834,2833,2820,2791,2772,2702,2654,2635,2626,2599,2580,2566,2547,2528,2512,2499,2501,2492,2485,2467,2466,2457,2454,2455,2492,2667,2788,2912,2970,3072,3090,3080,3011,2995,2934,2920,2871,2863,2835,2834,2827,2821,2813,2801,2798,2755,2716,2671,2643,2613,2612,2591,2585,2576,2574,2565,2562,2546,2548,2539,2531,2518,2536,2629,2842,2897,3060,3090,3133,3122,3074,2993,2928,2858,2822,2818,2812,2817,2814,2810,2778,2745,2700,2692,2652,2648,2634,2615,2595,2596,2588,2585,2583,2577,2565,2554,2545,2537,2537,2539,2606,2639,2836,2986,3017,3066,3029,3013,2936,2873,2818,2783,2786,2789,2798,2796,2801,2790,2771,2755,2724,2700,2683,2657,2631,2630,2620,2611,2608,2608,2602,2607,2602,2601,2597,2591,2597,2630,2659,2687,2728,2851,2975,2999,3016,2954,2936,2864,2801,2786,2782,2814,2826,2828,2800,2750,2720,2688,2685,2666,2655,2658,2651,2651,2642,2656,2662,2731,2829,2871,2902,2993,3003,3010,2995,2946,2920,2860,2837,2802,2789,2789,2787,2814,2825,2825,2813,2798,2792,2750,2719,2704,2700,2673,2672,2663,2657,2647,2651,2644,2648,2688,2707,2808,2923,3025,3060,3047,3029,2981,2958,2914,2870,2859,2854,2863,2860,2841,2822,2785,2741,2733,2698,2692,2668,2665,2648,2646,2629,2630,2621,2650,2675,2700,2809,2921,2979,3021,3020,2987,2961,2952,2911,2903,2868,2850,2845,2837,2829,2813,2793,2782,2737,2684,2675,2641,2622,2612,2600,2586,2576,2559,2547,2544,2550,2595,2626,2781,2930,2950,2986,2974,2968,2925,2887,2877,2847,2840,2831,2809,2797,2774,2732,2687,2657,2612,2588,2562,2537,2522,2516,2504,2498,2488,2477,2458,2455,2440,2445,2514,2625,2764,2804,2897,2912,2929,2925,2921,2892,2883,2848,2826,2802,2792,2782,2755,2743,2721,2690,2624,2582,2566,2523,2503,2494,2484,2475,2469,2458,2448,2440,2437,2428,2447,2463,2554,2591,2636,2792,2853,2863,2857,2812,2801,2750,2721,2717,2707,2707,2703,2693,2663,2620,14
2491,2591,2633,2790,2837,2955,2970,2976,2961,2952,2899,2862,2848,2842,2811,2790,2782,2780,2769,2759,2729,2722,2679,2669,2623,2578,2546,2545,2528,2529,2516,2518,2508,2510,2500,2501,2496,2503,2519,2602,2648,2693,2800,2904,3015,3026,3027,3011,2969,2950,2926,2881,2834,2810,2804,2757,2732,2689,2620,2575,2534,2505,2496,2497,2488,2485,2497,2579,2810,2941,2982,2936,2913,2883,2847,2838,2798,2770,2757,2736,2722,2695,2678,2639,2620,2591,2580,2562,2552,2507,2495,2476,2458,2444,2445,2434,2434,2421,2424,2428,2535,2583,2741,2801,2967,2996,2986,2956,2941,2920,2900,2872,2858,2834,2795,2776,2748,2741,2701,2644,2632,2588,2540,2503,2486,2477,2475,2467,2460,2454,2446,2446,2474,2572,2773,2823,2944,2983,2985,2952,2909,2863,2825,2811,2803,2783,2770,2745,2729,2694,2655,2606,2567,2543,2511,2505,2481,2477,2460,2458,2451,2443,2438,2447,2458,2548,2688,2744,2889,2972,2980,2985,2963,2953,2939,2902,2862,2850,2807,2758,2733,2703,2671,2656,2616,2572,2561,2517,2500,2474,2461,2455,2446,2440,2435,2435,2475,2577,2784,2923,2986,2994,2976,2967,2929,2905,2880,2868,2852,2809,2764,2755,2711,2676,2665,2649,2607,2576,2533,2485,2465,2456,2450,2445,2440,2437,2431,2440,2451,2539,2683,2850,2897,3004,3001,2953,2902,2820,2778,2746,2713,2677,2621,2576,2538,2525,2490,2474,2470,2463,2460,2458,2457,2455,2453,2496,2522,2654,2819,2962,3029,3006,2993,2966,2951,2939,2901,2853,2841,2801,2776,2767,2726,2688,2675,2663,2637,2616,2607,2580,2567,2558,2555,2548,2544,2544,2535,2537,2547,2617,2654,2792,2841,2965,2992,3010,2998,2951,2934,2885,2869,2827,2812,2764,2748,2741,2734,2702,2670,2613,2598,2585,2546,2507,2500,2482,2472,2468,2463,2459,2478,2561,2651,2872,2997,3022,3034,3011,2967,2924,2862,2846,2802,2756,2717,2681,2642,2574,2541,2514,2493,2477,2461,2453,2470,2490,2600,2651,2824,2882,3012,3036,3049,3047,3011,2997,2982,2940,2894,2858,2789,2776,2736,2699,2685,2645,2629,2584,2568,2515,2482,2472,2465,2441,2437,2419,2399,2398,2395,2485,2687,2746,2893,2928,2969,2952,2939,2928,2888,2877,2861,2823,2776,2747,2716,2669,2625,2586,2570,2535,2503,2497,2477,2467,2466,2455,2448,2460,2472,2561,2600,2649,2793,2909,2943,2922,2907,2867,2826,2817,2803,2774,2746,2743,2726,2725,2703,2697,2658,2647,2602,2576,2546,2520,2506,2492,2491,2484,2512,2530,2642,2685,2833,2873,2937,2959,2966,2956,2941,2902,2886,2876,2838,2805,2790,2759,2732,2714,2689,2681,2645,2636,2597,2568,2540,2522,2514,2498,2482,2482,2521,2620,2667,2806,2918,2953,2928,2898,2886,2855,2839,2779,2750,2741,2726,2718,2690,2674,2669,2658,2616,2607,2553,2531,2504,2487,2484,2476,2470,2476,2493,2511,2617,2657,2794,2909,2915,2914,2903,2880,2869,2843,2820,2775,2764,2722,2697,2687,2670,2642,2614,2577,2571,2539,2520,2511,2510,2494,2483,2491,2508,2583,2624,2743,2786,2817,2885,2884,2879,2843,2836,2800,2793,2756,2734,2711,2690,2689,2681,2670,2654,2615,2595,2546,2542,2520,2509,2501,2495,2527,2546,2683,2727,2858,2885,2881,2863,2830,2818,2796,2790,2751,2725,2702,2687,2678,2647,2623,2610,2588,2576,2559,2547,2531,2521,2514,2523,2532,2638,2757,2828,2891,2907,2897,2876,2873,2847,2805,2796,2756,2738,2707,2692,2675,2648,2588,2562,2534,2531,2512,2496,2491,2504,2536,2621,2771,2807,2878,2871,2870,2858,2832,2820,2814,2778,2768,2751,2723,2696,2687,2674,2650,2645,2632,2608,2559,2542,2522,2515,2502,2499,2541,2562,2596,2703,2816,2840,2866,2882,2868,2856,2833,2821,2798,2784,2741,2720,2703,2696,2675,2674,2644,2640,2611,2608,2584,2582,2564,2557,2544,2552,2557,2626,2722,2763,2794,2879,2899,2900,2891,2873,2846,2842,2813,2807,2792,2749,2734,2731,2721,2710,2699,2683,2670,2665,2633,2600,2597,2576,2575,2560,2561,2549,2553,2574,2599,2686,2727,2760,2868,2917,2927,2907,2874,2862,2839,2825,2818,2779,2752,2740,2726,2705,2688,2657,2617,2594,2582,2578,2555,2554,2538,2538,2525,2522,2571,2672,2789,2832,2910,2926,2923,2904,2886,2873,2849,2802,2785,2752,2721,2719,2697,2671,2667,2636,2632,2619,2595,2567,2556,2537,2529,2521,2521,2516,2562,2621,2694,2868,2892,2904,2902,2889,2865,2830,2816,2775,2747,2734,2718,2698,2696,2670,2651,2625,2592,2587,2576,2550,2540,2533,2524,2579,2640,2794,2899,2902,2869,2833,2790,2746,2714,2691,2618,2559,2520,2541,2664,2881,2906,2875,2832,2779,2726,2690,2663,2629,2587,2550,2520,2500,2484,2476,2553,2711,2858,2898,2870,2838,2799,2749,2705,2676,2647,2609,2565,2535,2514,2508,2499,2491,2494,2491,2515,2602,2720,2769,2808,2904,2920,2907,2877,2842,2825,2801,2751,2727,2709,2674,2640,2603,2598,2573,2563,2556,2544,2544,2549,2597,2631,2662,2787,2926,2939,2950,2914,2905,2887,2855,2818,2788,2751,2749,2726,2718,2709,2680,2654,2620,2600,2573,2553,2543,2537,2552,2617,2734,2886,2927,2888,2845,2819,2791,2764,2731,2699,2639,2594,2551,2547,2536,2526,2512,2502,2506,2507,2593,2720,2808,2903,2936,2927,2887,2861,2854,2837,2793,2750,2742,2728,2702,2666,2659,2619,2588,2577,2563,2537,2534,2521,2503,2493,2480,2474,2526,2637,2675,2837,2899,2883,2867,2841,2828,2805,2782,2741,2692,2687,2664,2663,2642,2639,2612,2608,2578,2547,2529,2521,2515,2503,2507,2527,2611,2642,2686,2843,2868,2912,2907,2883,2839,2831,2815,2782,2767,2758,2720,2696,2686,2673,2650,2638,2613,2571,2558,2552,2524,2521,2500,2486,2487,2481,2492,2582,2655,2803,2863,2863,2846,2807,2799,2785,2761,2731,2695,2677,2659,2650,2625,2620,2588,2582,2546,2535,2512,2512,2497,2499,2511,2533,2617,2660,2778,2878,2905,2891,2849,2815,2808,2794,2767,2733,2728,2717,2707,2690,2688,2677,2658,2628,2624,2611,2593,2582,2579,2558,2537,2538,2545,2615,2642,2682,2793,2886,2897,2910,2899,2859,2833,2817,2811,2774,2766,2730,2725,2713,2699,2687,2677,2676,2649,2627,2613,2609,2578,2560,2547,2538,2529,2529,2565,2657,2760,2799,2866,2880,2869,2827,2813,2805,2785,2771,2747,2719,2702,2696,2675,2671,2640,2616,2586,2567,2545,2544,2558,2661,2766,2833,2898,2889,2878,2851,2818,2812,2776,2769,2754,2716,2701,2699,2690,2661,2642,2636,2624,2585,2564,2554,2551,2531,2527,2529,2585,2610,2646,2790,2862,2877,2856,2831,2790,2754,2746,2731,2705,2692,2674,2653,2633,2620,2595,2582,2559,2546,2529,2509,2500,2509,2563,2597,2628,2749,2870,2882,2892,2880,2848,2842,2807,2775,2733,2703,2690,2672,2648,2634,2614,2582,2576,2564,2543,2517,2501,2494,2489,2493,2535,2558,2719,2862,2896,2951,2974,2942,2881,2822,2812,2769,2745,2735,2730,2724,2726,2705,2670,2641,2606,2602,2590,2573,2555,2556,2557,2589,2686,2884,2966,2932,2887,2819,2769,2738,2713,2698,2687,2663,2649,2641,2618,2603,2574,2560,2538,2512,2504,2502,2497,2508,2569,2605,2725,2773,2879,2906,2932,2924,2900,2857,2844,2811,2772,2765,2735,2718,2703,2669,2656,2626,2612,2582,2571,2530,2509,2505,2487,2488,2509,2532,2631,2676,2857,2939,2954,2950,2918,2895,2864,2821,2810,2769,2760,2728,2711,2688,2676,2645,2629,2594,2577,2568,2530,2510,2491,2487,2461,2445,2438,2448,2459,2551,2591,2743,2880,2955,2935,2898,2854,2844,2789,2765,2730,2712,2702,2682,2662,2650,2642,2595,2572,2559,2552,2521,2495,2492,2475,2493,2566,2743,2885,2916,2971,2969,2949,2900,2885,2865,2818,2799,2786,2730,2698,2693,2683,2659,2624,2615,2601,2565,2527,2520,2483,2458,2455,2501,2536,2665,2822,2934,2969,2937,2886,2837,2785,2771,2754,2719,2687,2678,2673,2647,2641,2605,2594,2556,2547,2510,2502,2483,2464,2443,2447,2492,2564,2709,2894,2922,2958,2932,2878,2828,2815,2796,2759,2726,2684,2636,2615,2575,2538,2513,2475,2445,2435,2408,2403,2408,2424,2504,2587,2729,2837,2860,2869,2819,2772,2758,2711,2697,2642,2613,2607,2599,2581,2572,2538,2507,2473,2465,2428,2414,2394,2388,2392,2477,2517,2644,2768,2796,2840,2826,2795,2746,2706,2695,2670,2633,2624,2608,2603,2599,2579,2574,2552,2546,2525,2511,2498,2492,2496,2506,2519,2569,2635,2674,2785,2871,2877,2849,2824,2810,2777,2764,2736,2726,2702,2695,2692,2692,2680,2676,2647,2621,2606,2586,2568,2565,2564,2575,2639,2672,2706,2821,2855,2928,2936,2934,2925,2893,2845,2832,2786,2759,2742,2735,2724,2704,2689,2681,2663,2620,2613,2593,2581,2588,2640,2739,2777,2889,2917,2940,2966,2952,2933,2923,2890,2844,2808,2779,2754,2730,2694,2662,2652,2641,2602,2562,2560,2657,2816,2934,2942,2910,2842,2780,2727,2701,2679,2664,2637,2586,2555,2547,2523,2503,2498,2491,2529,2622,2745,2854,2907,2910,2881,2849,2801,2764,2725,2704,2679,2652,2597,2550,2523,2507,2532,2650,2690,2817,2910,2937,2935,2896,2884,2845,2815,2774,2730,2722,2703,2655,2622,2570,2543,2506,2510,2611,2737,2895,2948,2952,2943,2903,2890,2878,2831,2816,2799,2756,2711,2700,2677,2647,2637,2590,2556,2547,2519,2512,2492,2478,2483,2549,2667,2759,2885,2956,2944,2924,2889,2873,2829,2812,2797,2750,2705,2699,2672,2644,2621,2581,2531,2501,2467,2459,2436,2435,2432,2462,2515,2596,2642,2796,2912,2938,2962,2945,2932,2922,2877,2864,2846,2798,2737,2721,2691,2660,2639,2605,2564,2554,2539,2506,2475,2469,2458,2429,2415,2414,2407,2414,2466,2502,2634,2688,2834,2875,2944,2926,2916,2874,2862,2805,2761,2738,2712,2687,2655,2647,2611,2558,2526,2508,2490,2473,2485,2631,2769,2917,2922,2874,2830,2817,2775,2764,2728,2710,2693,2667,2638,2629,2591,2581,2566,2544,2535,2522,2500,2477,2471,2466,2488,2574,2744,2859,2887,2916,2918,2888,2835,2825,2781,2729,2700,2691,2674,2666,2649,2640,2615,2583,2558,2546,2525,2502,2500,2492,2483,2475,2482,2488,2560,2591,2723,2764,2883,2926,2933,2900,2892,2854,2831,2822,2806,2772,2733,2721,2703,2670,2650,2612,2604,2562,2532,2519,2508,2493,2495,2485,2496,2506,26
