1,2,3,4,5,6,7,8,9,10,11,12,13,14,15,16,17,18,19,20,21,22,23,24,25,26,27,28,29,30,31,32,33,34,35,36,37,38,39,40,41,42,43,44,45,46,47,48,49,50,51,52,53,54,55,56,57,58,59,60,61,62,63,64,65,66,67,68,69,70,71,72,73,74,75,76,77,78,79,80,81,82,83,84,85,86,87,88,89,90,91,92,93,94,95,96,97,98,99,100,101,102,103,104,105,106,107,108,109,110,111,112,113,114,115,116,117,118,119,120,121,122,123,124,125,126,127,128,129,130,131,132,133,134,135,136,137,138,139,140,141,142,143,144,145,146,147,148,149,150,151,152,153,154,155,156,157,158,159,160,161,162,163,164,165,166,167,168,169,170,171,172,173,174,175,176,177,178,179,180,181,182,183,184,185,186,187,188,189,190,191,192,193,194,195,196,197,198,199,200,201,202,203,204,205,206,207,208,209,210,211,212,213,214,215,216,217,218,219,220,221,222,223,224,225,226,227,228,229,230,231,232,233,234,235,236,237,238,239,240,241,242,243,244,245,246,247,248,249,250,251,252,253,254,255,256,257,258,259,260,261,262,263,264,265,266,267,268,269,270,271,272,273,274,275,276,277,278,279,280,281,282,283,284,285,286,287,288,289,290,291,292,293,294,295,296,297,298,299,300,301,302,303,304,305,306,307,308,309,310,311,312,313,314,315,316,317,318,319,320,321,322,323,324,325,326,327,328,329,330,331,332,333,334,335,336,337,338,339,340,341,342,343,344,345,346,347,348,349,350,351,352,353,354,355,356,357,358,359,360,361,362,363,364,365,366,367,368,369,370,371,372,373,374,375,376,377,378,379,380,381,382,383,384,385,386,387,388,389,390,391,392,393,394,395,396,397,398,399,400,401,402,403,404,405,406,407,408,409,410,411,412,413,414,415,416,417,418,419,420,421,422,423,424,425,426,427,428,429,430,431,432,433,434,435,436,437,438,439,440,441,442,443,444,445,446,447,448,449,450,451,452,453,454,455,456,457,458,459,460,461,462,463,464,465,466,467,468,469,470,471,472,473,474,475,476,477,478,479,480,481,482,483,484,485,486,487,488,489,490,491,492,493,494,495,496,497,498,499,500,501,502,503,504,505,506,507,508,509,510,511,512,513,514,515,516,517,518,519,520,521,522,523,524,525,526,527,528,529,530,531,532,533,534,535,536,537,538,539,540,541,542,543,544,545,546,547,548,549,550,551,552,553,554,555,556,557,558,559,560,561,562,563,564,565,566,567,568,569,570,571,572,573,574,575,576,577,578,579,580,581,582,583,584,585,586,587,588,589,590,591,592,593,594,595,596,597,598,599,600,601,602,603,604,605,606,607,608,609,610,611,612,613,614,615,616,617,618,619,620,621,622,623,624,625,626,627,628,629,630,631,632,633,634,635,636,637,638,639,640,641,642,643,644,645,646,647,648,649,650,651,652,653,654,655,656,657,658,659,660,661,662,663,664,665,666,667,668,669,670,671,672,673,674,675,676,677,678,679,680,681,682,683,684,685,686,687,688,689,690,691,692,693,694,695,696,697,698,699,700,701,702,703,704,705,706,707,708,709,710,711,712,713,714,715,716,717,718,719,720,721,722,723,724,725,726,727,728,729,730,731,732,733,734,735,736,737,738,739,740,741,742,743,744,745,746,747,748,749,750,751,752,753,754,755,756,757,758,759,760,761,762,763,764,765,766,767,768,769,770,771,772,773,774,775,776,777,778,779,780,781,782,783,784,785,786,787,788,789,790,791,792,793,794,795,796,797,798,799,800,801,802,803,804,805,806,807,808,809,810,811,812,813,814,815,816,817,818,819,820,821,822,823,824,825,826,827,828,829,830,831,832,833,834,835,836,837,838,839,840,841,842,843,844,845,846,847,848,849,850,851,852,853,854,855,856,857,858,859,860,861,862,863,864,865,866,867,868,869,870,871,872,873,874,875,876,877,878,879,880,881,882,883,884,885,886,887,888,889,890,891,892,893,894,895,896,897,898,899,900,901,902,903,904,905,906,907,908,909,910,911,912,913,914,915,916,917,918,919,920,921,922,923,924,925,926,927,928,929,930,931,932,933,934,935,936,937,938,939,940,941,942,943,944,945,946,947,948,949,950,951,952,953,954,955,956,957,958,959,960,961,962,963,964,965,966,967,968,969,970,971,972,973,974,975,976,977,978,979,980,981,982,983,984,985,986,987,988,989,990,991,992,993,994,995,996,997,998,999,1000,1001,1002,1003,1004,1005,1006,1007,1008,1009,1010,1011,1012,1013,1014,1015,1016,1017,1018,1019,1020,1021,1022,1023,1024,1025,1026,1027,1028,1029,1030,1031,1032,1033,1034,1035,1036,1037,1038,1039,1040,1041,1042,1043,1044,1045,1046,1047,1048,1049,1050,1051,1052,1053,1054,1055,1056,1057,1058,1059,1060,1061,1062,1063,1064,1065,1066,1067,1068,1069,1070,1071,1072,1073,1074,1075,1076,1077,1078,1079,1080,1081,1082,1083,1084,1085,1086,1087,1088,1089,1090,1091,1092,1093,1094,1095,1096,1097,1098,1099,1100,1101,1102,1103,1104,1105,1106,1107,1108,1109,1110,1111,1112,1113,1114,1115,1116,1117,1118,1119,1120,1121,1122,1123,1124,1125,1126,1127,1128,1129,1130,1131,1132,1133,1134,1135,1136,1137,1138,1139,1140,1141,1142,1143,1144,1145,1146,1147,1148,1149,1150,1151,1152,1153,1154,1155,1156,1157,1158,1159,1160,1161,1162,1163,1164,1165,1166,1167,1168,1169,1170,1171,1172,1173,1174,1175,1176,1177,1178,1179,1180,1181,1182,1183,1184,1185,1186,1187,1188,1189,1190,1191,1192,1193,1194,1195,1196,1197,1198,1199,1200,1201,1202,1203,1204,1205,1206,1207,1208,1209,1210,1211,1212,1213,1214,1215,1216,1217,1218,1219,1220,1221,1222,1223,1224,1225,1226,1227,1228,1229,1230,1231,1232,1233,1234,1235,1236,1237,1238,1239,1240,1241,1242,1243,1244,1245,1246,1247,1248,1249,1250,1251,1252,1253,1254,1255,1256,1257,1258,1259,1260,1261,1262,1263,1264,1265,1266,1267,1268,1269,1270,1271,1272,1273,1274,1275,1276,1277,1278,1279,1280,1281,1282,1283,1284,1285,1286,1287,1288,1289,1290,1291,1292,1293,1294,1295,1296,1297,1298,1299,1300,1301,1302,1303,1304,1305,1306,1307,1308,1309,1310,1311,1312,1313,1314,1315,1316,1317,1318,1319,1320,1321,1322,1323,1324,1325,1326,1327,1328,1329,1330,1331,1332,1333,1334,1335,1336,1337,1338,1339,1340,1341,1342,1343,1344,1345,1346,1347,1348,1349,1350,1351,1352,1353,1354,1355,1356,1357,1358,1359,1360,1361,1362,1363,1364,1365,1366,1367,1368,1369,1370,1371,1372,1373,1374,1375,1376,1377,1378,1379,1380,1381,1382,1383,1384,1385,1386,1387,1388,1389,1390,1391,1392,1393,1394,1395,1396,1397,1398,1399,1400,1401,1402,1403,1404,1405,1406,1407,1408,1409,1410,1411,1412,1413,1414,1415,1416,1417,1418,1419,1420,1421,1422,1423,1424,1425,1426,1427,1428,1429,1430,1431,1432,1433,1434,1435,1436,1437,1438,1439,1440,1441,1442,1443,1444,1445,1446,1447,1448,1449,1450,1451,1452,1453,1454,1455,1456,1457,1458,1459,1460,1461,1462,1463,1464,1465,1466,1467,1468,1469,1470,1471,1472,1473,1474,1475,1476,1477,1478,1479,1480,1481,1482,1483,1484,1485,1486,1487,1488,1489,1490,1491,1492,1493,1494,1495,1496,1497,1498,1499,1500,1501,1502,1503,1504,1505,1506,1507,1508,1509,1510,1511,1512,1513,1514,1515,1516,1517,1518,1519,1520,1521,1522,1523,1524,1525,1526,1527,1528,1529,1530,1531,1532,1533,1534,1535,1536,1537,1538,1539,1540,1541,1542,1543,1544,1545,1546,1547,1548,1549,1550,1551,1552,1553,1554,1555,1556,1557,1558,1559,1560,1561,1562,1563,1564,1565,1566,1567,1568,1569,1570,1571,1572,1573,1574,1575,1576,1577,1578,1579,1580,1581,1582,1583,1584,1585,1586,1587,1588,1589,1590,1591,1592,1593,1594,1595,1596,1597,1598,1599,1600,1601,1602,1603,1604,1605,1606,1607,1608,1609,1610,1611,1612,1613,1614,1615,1616,1617,1618,1619,1620,1621,1622,1623,1624,1625,1626,1627,1628,1629,1630,1631,1632,1633,1634,1635,1636,1637,1638,1639,1640,1641,1642,1643,1644,1645,1646,1647,1648,1649,1650,1651,1652,1653,1654,1655,1656,1657,1658,1659,1660,1661,1662,1663,1664,1665,1666,1667,1668,1669,1670,1671,1672,1673,1674,1675,1676,1677,1678,1679,1680,1681,1682,1683,1684,1685,1686,1687,1688,1689,1690,1691,1692,1693,1694,1695,1696,1697,1698,1699,1700,1701,1702,1703,1704,1705,1706,1707,1708,1709,1710,1711,1712,1713,1714,1715,1716,1717,1718,1719,1720,1721,1722,1723,1724,1725,1726,1727,1728,1729,1730,1731,1732,1733,1734,1735,1736,1737,1738,1739,1740,1741,1742,1743,1744,1745,1746,1747,1748,1749,1750,1751,1752,1753,1754,1755,1756,1757,1758,1759,1760,1761,1762,1763,1764,1765,1766,1767,1768,1769,1770,1771,1772,1773,1774,1775,1776,1777,1778,1779,1780,1781,1782,1783,1784,1785,1786,1787,1788,1789,1790,1791,1792,1793,1794,1795,1796,1797,1798,1799,1800,stress_score
2786,2761,2754,2741,2705,2655,2641,2623,2591,2579,2539,2532,2520,2505,2503,2491,2493,2490,2494,2492,2495,2496,2493,2492,2488,2487,2507,2601,2655,2781,2848,3051,3101,3185,3185,3178,3159,3112,3088,3008,2987,2917,2871,2825,2749,2720,2698,2684,2664,2626,2607,2572,2558,2539,2498,2464,2459,2449,2439,2435,2429,2433,2432,2435,2433,2436,2437,2434,2460,2515,2610,2670,2889,2961,3032,3139,3195,3185,3168,3118,3039,2993,2973,2925,2877,2848,2801,2781,2728,2706,2684,2664,2641,2624,2578,2544,2512,2494,2458,2427,2423,2415,2408,2406,2404,2411,2411,2414,2411,2413,2411,2415,2413,2416,2429,2448,2471,2551,2610,2821,2902,3105,3157,3217,3215,3198,3129,3054,3034,2948,2874,2853,2782,2766,2748,2722,2703,2685,2678,2665,2631,2573,2518,2505,2485,2479,2470,2459,2458,2453,2453,2451,2447,2450,2449,2450,2453,2452,2454,2453,2456,2455,2458,2459,2457,2481,2498,2529,2618,2672,2740,2808,2951,3019,3159,3183,3157,3080,3057,3030,2970,2910,2872,2822,2805,2796,2767,2748,2736,2729,2687,2640,2621,2575,2559,2527,2516,2511,2491,2485,2485,2481,2483,2481,2479,2481,2476,2460,2416,2400,2432,2564,2621,2751,2817,2964,3008,3002,2948,2932,2912,2880,2866,2848,2801,2737,2721,2703,2700,2692,2682,2674,2653,2639,2600,2554,2529,2519,2489,2474,2467,2466,2464,2463,2463,2470,2472,2468,2467,2461,2460,2457,2460,2460,2501,2681,2746,2969,3146,3187,3221,3214,3152,3108,3066,3026,3008,2964,2939,2869,2826,2776,2717,2683,2655,2638,2624,2575,2537,2524,2515,2488,2483,2468,2464,2461,2462,2458,2460,2455,2457,2452,2454,2452,2457,2461,2461,2471,2476,2501,2594,2765,2836,3102,3147,3211,3172,3120,3047,3023,2969,2934,2879,2834,2818,2810,2781,2746,2738,2696,2666,2632,2619,2590,2575,2545,2535,2519,2512,2506,2508,2507,2510,2511,2512,2510,2507,2500,2505,2551,2628,2802,2865,3043,3118,3139,3128,3063,2995,2972,2914,2893,2836,2815,2765,2750,2724,2716,2711,2687,2654,2625,2578,2565,2550,2517,2492,2479,2473,2471,2471,2472,2474,2476,2477,2476,2476,2474,2472,2473,2512,2539,2627,2748,2956,3019,3122,3186,3152,3082,3057,3036,2970,2887,2846,2792,2756,2749,2726,2700,2689,2677,2648,2620,2603,2563,2530,2522,2512,2499,2489,2482,2479,2479,2477,2476,2473,2473,2471,2470,2469,2469,2468,2455,2444,2442,2476,2602,2662,2731,2875,3097,3136,3116,3098,3019,2968,2897,2878,2820,2804,2759,2746,2738,2731,2702,2663,2647,2632,2617,2574,2539,2529,2508,2504,2502,2498,2499,2501,2505,2507,2505,2502,2498,2494,2495,2497,2498,2504,2525,2541,2643,2827,2900,3114,3172,3266,3271,3227,3172,3144,3071,3007,2987,2925,2904,2852,2800,2750,2686,2618,2573,2560,2549,2522,2503,2498,2493,2493,2494,2494,2494,2492,2487,2488,2498,2573,2670,2731,2796,2864,3050,3151,3127,3053,3029,3005,2919,2874,2853,2785,2747,2733,2700,2694,2669,2661,2638,2609,2559,2544,2499,2475,2451,2437,2436,2433,2434,2436,2439,2441,2442,2440,2441,2439,2439,2437,2438,2436,2437,2437,2462,2481,2605,2807,3032,3186,3211,3145,3116,3046,3021,2957,2932,2863,2836,2815,2760,2729,2701,2671,2626,2612,2594,2547,2495,2461,2446,2445,2439,2441,2441,2440,2442,2439,2436,2435,2439,2442,2444,2451,2452,2489,2515,2657,2719,2943,3177,3223,3181,3132,3083,3016,2953,2879,2814,2792,2751,2719,2711,2677,2638,2588,2548,2509,2501,2490,2476,2466,2463,2465,2462,2465,2461,2460,2456,2449,2448,2445,2450,2449,2454,2451,2443,2432,2430,2429,2513,2686,2972,3111,3129,3121,3057,3040,2982,2950,2904,2883,2832,2813,2800,2765,2750,2738,2717,2693,2649,2608,2590,2557,2524,2515,2514,2505,2509,2508,2516,2519,2517,2520,2514,2517,2511,2514,2510,2514,2515,2515,2535,2559,2678,2805,3030,3204,3243,3261,3251,3225,3140,3054,3007,2949,2925,2871,2823,2798,2770,2742,2724,2714,2660,2615,2596,2561,2545,2523,2512,2510,2493,2494,2484,2487,2482,2487,2487,2481,2485,2479,2485,2518,2552,2585,2758,2958,3026,3075,3172,3173,3083,2984,2917,2860,2835,2819,2757,2710,2696,2682,2677,2637,2627,2574,2563,2514,2491,2467,2444,2441,2434,2443,2448,2445,2451,2446,2450,2444,2448,2444,2444,2445,2451,2449,2494,2674,2736,2967,3033,3101,3192,3228,3191,3065,3020,2994,2978,2911,2851,2824,2810,2759,2733,2715,2682,2674,2626,2616,2565,2555,2511,2475,2474,2451,2451,2457,2457,2459,2453,2457,2452,2457,2452,2460,2455,2461,2455,2461,2460,2532,2567,2748,2811,2887,3060,3143,3137,3091,3060,3040,2964,2950,2890,2879,2844,2810,2759,2735,2712,2696,2658,2651,2632,2594,2547,2542,2507,2492,2482,2485,2476,2484,2490,2494,2499,2509,2505,2512,2505,2510,2505,2569,2654,2850,3053,3202,3217,3212,3182,3064,3040,3008,2946,2887,2877,2826,2797,2797,2786,2771,2735,2728,2708,2678,2648,2591,2568,2563,2549,2534,2524,2521,2515,2514,2515,2521,2515,2521,2534,2620,2659,2836,2895,3072,3106,3140,3147,3108,3031,2947,2929,2863,2849,2793,2783,2757,2741,2718,2705,2683,2665,2629,2579,2571,2531,2512,2497,2485,2478,2463,2467,2458,2464,2458,2463,2458,2469,2540,2889,3121,3171,3171,3101,3077,3044,2970,2924,2817,2769,2726,2708,2683,2680,2666,2634,2585,2576,2556,2520,2503,2477,2465,2453,2445,2444,2439,2446,2443,2449,2450,2460,2456,2460,2460,2475,2549,2720,2934,3009,3159,3190,3170,3060,2980,2962,2896,2881,2818,2749,2700,2654,2614,2594,2553,2508,2501,2486,2467,2451,2445,2450,2454,2456,2469,2474,2472,2475,2471,2476,2499,2606,2656,2724,2931,3005,3184,3178,3162,3129,3067,2952,2933,2866,2801,2770,2743,2728,2716,2686,2657,2607,2549,2518,2505,2488,2479,2479,2471,2468,2471,2469,2474,2483,2542,2688,2814,2997,3051,3125,3130,3075,3051,2961,2889,2820,2767,2748,2698,2681,2672,2641,2608,2591,2550,2498,2484,2462,2452,2439,2438,2435,2439,2441,2441,2444,2441,2446,2447,2460,2532,2698,2765,2986,3048,3104,3188,3179,3110,3077,2994,2871,2811,2742,2726,2702,2677,2672,2661,2629,2612,2571,2525,2514,2497,2470,2455,2437,2437,2430,2437,2436,2441,2444,2450,2451,2454,2458,2500,2577,2766,3060,3196,3218,3196,3144,3052,2965,2944,2918,2855,2794,2781,2741,2726,2708,2698,2673,2630,2617,2600,2557,2540,2528,2491,2462,2456,2453,2460,2460,2473,2474,2485,2490,2490,2530,2598,2774,2848,2921,3124,3224,3220,3142,3034,3002,2969,2889,2827,2811,2768,2759,2750,2734,2722,2681,2631,2580,2562,2547,2496,2471,2467,2455,2455,2455,2456,2461,2482,2502,2613,2671,2874,3010,3151,3171,3099,2996,2877,2806,2747,2732,2717,2689,2672,2668,2661,2636,2594,2544,2496,2446,2424,2420,2416,2412,2417,2419,2429,2436,2439,2444,2494,2633,2698,2927,3225,3167,3135,3031,2889,2818,2744,2731,2700,2670,2661,2624,2579,2513,2462,2436,2422,2418,2414,2416,2418,2419,2425,2429,2427,2430,2433,2494,2587,2802,3055,3271,3272,3183,3070,2974,2945,2920,2849,2792,2775,2742,2730,2710,2700,2671,2657,2614,2596,2550,2520,2482,2473,2449,2445,2436,2436,2444,2450,2458,2463,2515,2654,2723,2796,3035,3104,3255,3215,3179,3058,3016,2911,2879,2805,2783,2738,2725,2707,2677,2657,2628,2614,2544,2482,2446,2439,2419,2418,2412,2413,2415,2424,2429,2499,2539,2728,2801,3033,3148,3209,3158,3046,3010,2969,2875,2772,2748,2701,2680,2660,2647,2636,2591,2546,2526,2482,2464,2432,2420,2415,2396,2395,2391,2399,2403,2403,2412,2435,2519,2574,2782,2867,2947,3162,3252,3236,3149,3108,3001,2966,2879,2849,2826,2754,2707,2693,2688,2664,2646,2634,2626,2577,2529,2509,2446,2436,2398,2383,2382,2389,2405,2411,2414,2424,2455,2488,2639,2716,2959,3179,3266,3228,3190,3078,3036,2939,2906,2808,2758,2715,2704,2703,2678,2632,2621,2567,2521,2501,2491,2451,2432,2423,2422,2423,2435,2448,2453,2525,2676,3039,3185,3083,2930,2837,2804,2782,2711,2656,2641,2632,2622,2609,2578,2483,2430,2388,2379,2450,2714,2941,3101,3149,3133,3058,2954,2929,2839,2788,2723,2698,2657,2640,2618,2604,2589,2557,2537,2496,2477,2468,2427,2406,2395,2389,2387,2384,2391,2394,2405,2407,2407,2426,2529,2941,3110,3159,3098,3004,2980,2947,2874,2774,2745,2698,2680,2650,2619,2564,2514,2505,2462,2429,2408,2377,2336,2331,2316,2304,2296,2304,2304,2359,2558,2625,2864,3046,3092,3087,2932,2793,2722,2682,2638,2603,2539,2519,2514,2512,2521,2517,2545,2574,2760,3022,3187,3191,3163,3074,3050,3016,2940,2842,2773,2762,2722,2720,2698,2682,2638,2577,2569,2526,2497,2499,2485,2489,2483,2490,2490,2483,2488,2501,2593,2636,2902,3104,3186,3204,3196,3170,3092,3003,2982,2882,2852,2792,2769,2718,2701,2683,2631,2577,2514,2485,2470,2468,2446,2446,2448,2455,2456,2458,2458,2445,2520,2570,2749,2827,2895,3082,3153,3160,3096,3026,2984,2922,2842,2822,2736,2706,2668,2643,2626,2573,2504,2458,2431,2426,2439,2454,2459,2468,2463,2484,2555,2605,2878,3097,3162,3239,3231,3136,3044,2934,2807,2768,2752,2741,2721,2704,2665,2642,2598,2577,2569,2530,2515,2507,2496,2493,2495,2575,2925,3179,3084,2976,2856,2759,2709,2674,2666,2662,2654,2635,2620,2584,2564,2523,2476,2462,2444,2435,2431,2426,2430,2443,2442,2448,2450,2458,2463,2539,2776,3005,3219,3234,3146,2997,2898,2862,2777,2746,2680,2660,2634,2617,2607,2570,2524,2470,2439,2426,2409,2401,2401,2390,2405,2410,2420,2427,2435,2488,2532,2714,2967,3125,3186,3290,3229,3117,3085,2985,2961,2865,2802,2790,2773,2746,2734,2715,2683,2656,2645,2596,2557,2540,2510,2497,2480,2472,2471,2461,2462,2470,2470,2475,2475,2479,2492,2512,2620,2680,2893,3116,3169,3256,3250,3239,3139,3062,2958,2853,2799,2789,2757,2750,2737,2727,2698,2680,2633,2612,2563,2544,2533,2495,2476,2463,2459,2460,2472,2527,2670,2806,3019,3083,3130,3194,3125,3087,2983,2886,2862,2790,2741,2707,2697,2681,2677,2643,2600,2548,2507,2491,2454,2440,2435,2429,2431,2434,2434,2442,2492,2531,2698,6
2389,2377,2371,2366,2364,2354,2349,2334,2331,2355,2382,2466,2520,2719,2905,2996,2978,2957,2877,2850,2780,2763,2724,2709,2699,2696,2684,2658,2612,2571,2531,2490,2472,2423,2390,2375,2357,2354,2354,2353,2349,2344,2341,2353,2370,2398,2532,2721,2785,2846,2967,2984,2969,2952,2841,2791,2776,2776,2764,2754,2685,2628,2579,2538,2529,2518,2495,2490,2488,2489,2487,2486,2482,2478,2473,2472,2457,2456,2448,2446,2454,2558,2712,2887,2933,3016,3018,3015,2959,2940,2876,2864,2832,2831,2834,2840,2829,2790,2778,2723,2658,2633,2598,2595,2582,2575,2568,2557,2540,2520,2574,2651,2807,2970,3008,3062,3043,3019,2997,2914,2854,2836,2828,2810,2812,2813,2819,2819,2820,2814,2788,2739,2726,2706,2643,2608,2596,2576,2558,2559,2554,2553,2549,2550,2548,2540,2541,2535,2534,2556,2584,2655,2698,2916,2970,3076,3044,3024,2969,2886,2837,2813,2816,2822,2842,2841,2825,2782,2769,2719,2708,2691,2661,2632,2619,2610,2603,2600,2594,2586,2580,2571,2571,2679,2774,2946,3072,3101,3107,3078,3014,2947,2937,2901,2897,2892,2898,2900,2893,2874,2857,2813,2791,2742,2719,2678,2660,2630,2599,2598,2586,2574,2564,2555,2545,2535,2524,2523,2525,2600,2634,2685,2848,3005,3068,3063,2988,2929,2906,2873,2860,2849,2836,2828,2796,2788,2732,2679,2606,2558,2530,2517,2501,2480,2471,2451,2451,2431,2420,2415,2462,2691,2813,2964,3009,2980,2954,2936,2829,2802,2789,2780,2767,2768,2743,2736,2688,2675,2614,2601,2578,2537,2498,2478,2458,2446,2449,2437,2435,2427,2424,2416,2430,2440,2541,2586,2649,2836,3069,3074,3067,3005,2990,2930,2922,2885,2883,2872,2868,2853,2836,2790,2739,2660,2603,2594,2554,2552,2528,2529,2512,2515,2501,2503,2493,2487,2469,2471,2461,2487,2601,2649,2847,2909,3082,3111,3155,3143,3114,3057,2986,2951,2945,2941,2944,2922,2917,2861,2807,2796,2745,2737,2720,2672,2632,2627,2594,2567,2552,2527,2520,2555,2578,2713,2875,2973,3057,3058,3032,3007,2902,2880,2806,2791,2742,2722,2710,2680,2620,2604,2536,2518,2492,2453,2439,2385,2352,2338,2333,2308,2307,2290,2291,2281,2324,2348,2390,2545,2673,2845,2935,2929,2892,2868,2807,2783,2770,2724,2708,2701,2707,2702,2705,2681,2674,2617,2602,2576,2535,2467,2459,2427,2426,2412,2415,2409,2413,2407,2410,2396,2398,2397,2488,2704,2886,2998,2993,2950,2865,2842,2811,2747,2713,2696,2673,2658,2658,2634,2598,2575,2519,2478,2420,2392,2365,2338,2340,2340,2335,2334,2320,2322,2332,2354,2450,2500,2654,2709,2815,2841,2797,2742,2719,2703,2673,2619,2615,2597,2573,2544,2484,2465,2425,2402,2388,2373,2363,2365,2370,2372,2377,2375,2383,2383,2384,2390,2475,2602,2698,2811,2856,2850,2812,2755,2742,2725,2700,2692,2688,2687,2692,2698,2707,2711,2707,2698,2695,2659,2628,2623,2599,2585,2580,2580,2570,2568,2567,2566,2563,2565,2564,2566,2575,2591,2708,2830,2906,2972,2972,2940,2917,2858,2837,2808,2786,2782,2772,2783,2789,2798,2796,2780,2748,2738,2721,2714,2712,2701,2700,2699,2701,2700,2697,2697,2691,2687,2683,2683,2675,2675,2676,2739,2887,3004,3060,3055,3003,2979,2915,2895,2855,2845,2833,2834,2845,2850,2858,2845,2838,2809,2779,2769,2760,2730,2714,2711,2706,2701,2697,2696,2693,2691,2689,2680,2677,2667,2664,2659,2664,2719,2749,2859,2993,3011,3018,2996,2955,2885,2799,2775,2772,2777,2789,2791,2788,2757,2722,2710,2677,2651,2633,2622,2618,2617,2617,2617,2617,2613,2611,2601,2599,2614,2721,2760,2799,2881,2984,2951,2886,2864,2844,2779,2754,2751,2756,2759,2773,2771,2767,2758,2727,2713,2675,2661,2630,2614,2596,2591,2589,2593,2593,2598,2598,2602,2602,2597,2603,2660,2817,2951,3032,3044,3025,3011,2949,2931,2874,2840,2830,2827,2821,2826,2836,2827,2823,2812,2776,2727,2715,2697,2659,2646,2613,2601,2596,2593,2588,2589,2584,2581,2575,2569,2560,2544,2537,2548,2563,2662,2804,2858,3016,3039,3033,2959,2889,2871,2820,2810,2788,2789,2795,2794,2793,2765,2755,2672,2627,2610,2578,2566,2548,2532,2528,2520,2518,2515,2504,2492,2537,2713,2945,3063,3082,3013,2942,2915,2859,2823,2820,2813,2821,2827,2823,2805,2789,2744,2669,2646,2599,2556,2529,2504,2495,2487,2481,2473,2474,2460,2446,2439,2433,2430,2445,2523,2573,2741,2810,3027,3053,3081,3026,3005,2973,2868,2816,2786,2782,2797,2797,2805,2780,2773,2754,2703,2679,2624,2566,2555,2537,2508,2495,2484,2474,2471,2463,2457,2459,2447,2449,2442,2437,2421,2425,2495,2636,2768,2973,3125,3069,2988,2903,2863,2832,2820,2835,2824,2791,2710,2639,2561,2521,2505,2475,2475,2463,2463,2457,2460,2450,2446,2438,2439,2423,2430,2452,2559,2618,2675,2949,3101,3120,3132,3112,3042,3008,2984,2901,2853,2824,2826,2822,2825,2796,2788,2728,2712,2638,2580,2524,2513,2495,2472,2452,2444,2444,2437,2442,2430,2427,2413,2407,2415,2565,2767,2968,3105,3118,3130,3084,3063,3028,2934,2844,2828,2804,2777,2775,2777,2762,2733,2669,2581,2525,2471,2463,2429,2427,2409,2411,2404,2396,2399,2393,2388,2379,2381,2369,2385,2483,2657,2889,3073,3118,3140,3148,3068,3040,2934,2877,2822,2806,2795,2791,2802,2798,2775,2766,2707,2644,2617,2558,2536,2477,2471,2444,2445,2431,2427,2423,2423,2413,2408,2401,2405,2429,2495,2604,2674,2902,2983,3049,3193,3193,3163,3069,2938,2910,2894,2851,2845,2856,2850,2851,2812,2799,2725,2704,2622,2533,2520,2474,2454,2440,2434,2433,2421,2422,2414,2413,2397,2388,2380,2375,2373,2432,2467,2727,3043,3189,3202,3183,3124,3015,2927,2857,2845,2846,2851,2852,2836,2781,2763,2736,2667,2639,2620,2560,2524,2510,2505,2484,2485,2477,2481,2480,2476,2473,2467,2462,2454,2476,2508,2657,2893,2975,3244,3308,3298,3225,3113,3081,3045,2967,2946,2934,2910,2910,2906,2907,2883,2808,2786,2703,2629,2604,2585,2532,2503,2493,2490,2477,2478,2473,2475,2469,2470,2465,2458,2431,2432,2534,2585,2651,2878,2960,3155,3199,3231,3166,3093,2976,2888,2835,2826,2832,2835,2828,2768,2748,2670,2595,2571,2553,2499,2469,2461,2459,2450,2448,2450,2443,2443,2437,2418,2438,2655,3016,3161,3107,3003,2899,2867,2777,2767,2749,2675,2599,2503,2448,2411,2404,2397,2388,2387,2387,2387,2384,2383,2380,2371,2417,2563,2713,2969,3171,3246,3204,3106,3071,2972,2899,2857,2839,2829,2803,2752,2679,2573,2548,2486,2442,2415,2403,2399,2396,2394,2388,2378,2367,2355,2366,2385,2417,2589,2853,2948,3041,3296,3319,3302,3207,3101,3039,2967,2949,2934,2901,2869,2859,2813,2714,2684,2655,2567,2493,2472,2415,2407,2397,2386,2380,2377,2375,2368,2364,2362,2349,2330,2321,2316,2315,2316,2372,2412,2621,2919,3025,3286,3344,3404,3394,3301,3264,3151,3119,3040,3003,2964,2913,2902,2822,2733,2670,2549,2477,2422,2393,2383,2376,2371,2374,2369,2362,2362,2356,2345,2327,2326,2313,2309,2305,2308,2383,2495,2764,3081,3387,3428,3406,3250,3048,2956,2922,2911,2909,2873,2779,2649,2619,2528,2462,2414,2395,2389,2387,2392,2390,2391,2383,2377,2370,2367,2360,2391,2536,2608,2886,3338,3326,3203,3064,3018,2889,2849,2842,2850,2847,2834,2779,2685,2655,2619,2526,2494,2472,2410,2377,2362,2361,2377,2376,2393,2498,2727,3013,3110,3189,3358,3319,3279,3150,3099,2980,2942,2858,2844,2839,2842,2833,2828,2770,2647,2546,2482,2397,2349,2320,2320,2324,2334,2350,2355,2351,2347,2342,2477,2737,3069,3364,3497,3415,3283,3146,3053,3023,2978,2934,2904,2805,2766,2662,2619,2587,2460,2389,2376,2338,2320,2322,2316,2304,2305,2289,2270,2261,2259,2262,2285,2418,2696,2803,3232,3408,3420,3330,3120,3016,2953,2931,2880,2874,2829,2771,2716,2612,2478,2453,2371,2322,2298,2272,2268,2258,2260,2246,2238,2230,2221,2213,2214,2203,2208,2256,2516,2831,3133,3314,3295,3172,3046,2918,2861,2850,2843,2835,2817,2735,2652,2556,2408,2361,2363,2360,2363,2366,2358,2350,2360,2439,2712,2985,3060,3227,3194,3164,3040,3005,2900,2841,2823,2819,2810,2820,2813,2792,2770,2704,2670,2645,2529,2442,2397,2392,2380,2371,2363,2367,2361,2352,2356,2387,2525,2743,2996,3062,3191,3157,3091,2972,2833,2784,2781,2771,2742,2720,2654,2567,2497,2435,2424,2389,2378,2382,2383,2378,2381,2372,2356,2358,2384,2419,2459,2857,3206,3322,3307,3274,3130,3036,3005,2948,2929,2904,2894,2879,2865,2857,2797,2720,2657,2536,2456,2418,2379,2348,2346,2326,2318,2308,2289,2288,2267,2253,2245,2247,2279,2318,2490,2574,2833,2920,2990,3122,3110,3091,3058,2922,2864,2775,2741,2726,2694,2642,2624,2547,2524,2445,2385,2364,2351,2313,2299,2292,2293,2290,2287,2289,2284,2285,2281,2280,2274,2273,2301,2424,2558,2890,3084,3156,3113,3090,3058,2970,2941,2882,2867,2847,2841,2843,2844,2839,2829,2769,2750,2677,2655,2611,2552,2502,2487,2480,2483,2483,2485,2478,2476,2463,2464,2533,2687,2828,2907,3107,3215,3221,3188,3134,3041,2986,2928,2894,2891,2878,2813,2738,2640,2621,2599,2555,2524,2520,2506,2496,2496,2482,2479,2472,2459,2483,2512,2547,2715,2783,2995,3052,3160,3138,3113,3026,2995,2918,2896,2851,2840,2828,2825,2814,2796,2748,2679,2611,2568,2516,2503,2482,2460,2448,2446,2445,2443,2436,2423,2420,2452,2581,2647,2885,2969,3174,3245,3222,3124,3089,2990,2899,2873,2852,2840,2817,2770,2747,2670,2535,2473,2429,2419,2402,2399,2398,2399,2402,2403,2402,2399,2396,2394,2386,2387,2402,2516,2744,2836,2934,3204,3358,3373,3373,3300,3263,3143,3106,2994,2945,2935,2911,2906,2899,2869,2788,2762,2644,2558,2533,2468,2450,2409,2399,2379,2375,2366,2363,2356,2352,2341,2336,2326,2322,2312,2315,2330,2357,2514,2593,2876,3157,3225,3278,3323,3151,3012,2907,2881,2861,2830,2828,2828,2841,2821,2769,2690,2607,2529,2456,2428,2414,2414,2412,2418,2419,2423,2425,2425,2422,2424,2481,2635,2712,3059,3253,3291,3295,3196,3051,2888,2821,2805,2800,2801,2818,2805,2797,2711,2618,2590,2557,2457,2420,2387,2370,2372,16
2629,2534,2499,2466,2378,2355,2298,2284,2259,2255,2266,2310,2453,2518,2737,2932,2976,3010,2989,2878,2836,2720,2692,2651,2652,2668,2681,2695,2721,2723,2709,2693,2675,2576,2526,2484,2434,2414,2394,2382,2395,2470,2670,2843,2952,2967,2969,2922,2891,2857,2727,2688,2677,2673,2694,2752,2762,2761,2737,2679,2610,2553,2535,2521,2489,2484,2480,2497,2583,2629,2679,2850,2996,3058,3019,2924,2887,2793,2769,2736,2735,2758,2766,2789,2788,2765,2712,2654,2597,2582,2539,2507,2497,2488,2494,2511,2607,2655,2809,2861,2965,2982,2960,2939,2842,2747,2700,2668,2680,2698,2715,2716,2708,2655,2599,2578,2529,2513,2492,2485,2476,2468,2464,2466,2462,2464,2460,2461,2458,2470,2543,2589,2745,2908,2947,2981,2998,2936,2903,2874,2779,2723,2712,2711,2733,2739,2762,2749,2741,2724,2670,2605,2557,2517,2502,2490,2491,2488,2486,2480,2472,2470,2476,2561,2601,2819,2960,2982,2991,2912,2811,2722,2684,2692,2721,2738,2763,2768,2744,2698,2632,2558,2524,2500,2491,2495,2490,2486,2493,2528,2640,2684,2844,2889,2987,2994,2997,2936,2841,2774,2697,2681,2682,2695,2748,2766,2768,2735,2721,2699,2606,2553,2526,2504,2503,2496,2491,2489,2510,2593,2744,2795,2949,2982,3031,3010,2927,2900,2802,2744,2731,2738,2743,2785,2792,2808,2800,2767,2745,2729,2660,2644,2604,2572,2531,2527,2503,2496,2495,2554,2668,2723,2874,2925,2958,3020,2986,2967,2935,2844,2761,2748,2731,2733,2761,2784,2805,2778,2729,2658,2640,2575,2531,2512,2505,2471,2458,2453,2463,2517,2557,2647,2694,2752,2898,2940,2963,2988,2927,2903,2866,2773,2703,2697,2687,2712,2754,2757,2764,2724,2712,2689,2606,2591,2533,2497,2482,2471,2470,2534,2564,2704,2750,2892,2920,2964,2954,2945,2862,2769,2734,2714,2667,2668,2685,2702,2731,2737,2721,2645,2573,2556,2495,2485,2469,2479,2555,2604,2648,2820,2955,2991,3006,3005,2925,2829,2769,2713,2708,2734,2739,2753,2761,2743,2724,2713,2649,2634,2570,2559,2524,2561,2625,2765,2824,2872,3002,3035,3033,3011,2895,2809,2780,2746,2744,2757,2759,2782,2766,2760,2741,2693,2667,2651,2570,2521,2529,2540,2644,2685,2838,2877,2970,2974,2956,2870,2785,2716,2710,2692,2714,2691,2623,2597,2540,2481,2473,2432,2482,2606,2705,2839,2917,2916,2886,2775,2742,2684,2666,2663,2659,2670,2684,2693,2682,2680,2657,2637,2627,2564,2537,2511,2475,2457,2437,2467,2484,2594,2731,2783,2820,2908,2863,2791,2709,2694,2693,2693,2717,2716,2717,2704,2667,2644,2594,2572,2532,2516,2496,2485,2478,2473,2461,2465,2470,2488,2567,2654,2811,2927,2966,2960,2888,2817,2790,2776,2740,2746,2755,2756,2757,2745,2713,2639,2615,2571,2530,2511,2500,2487,2489,2481,2480,2473,2476,2469,2481,2537,2579,2719,2780,2930,2975,3027,3009,2984,2965,2864,2801,2782,2787,2783,2787,2778,2753,2733,2683,2658,2620,2607,2586,2536,2519,2509,2504,2494,2496,2485,2486,2467,2456,2447,2463,2540,2697,2877,3021,3061,3043,3027,2944,2872,2847,2835,2800,2800,2796,2801,2789,2785,2740,2726,2661,2606,2554,2523,2512,2492,2483,2472,2453,2429,2426,2427,2441,2519,2680,2739,2807,2978,3072,3074,3074,3013,2926,2828,2792,2798,2816,2811,2792,2737,2646,2603,2542,2520,2505,2501,2501,2494,2491,2475,2464,2462,2496,2613,2783,2961,3073,3043,3022,2924,2895,2811,2796,2765,2769,2780,2792,2793,2751,2693,2623,2548,2516,2491,2484,2484,2477,2479,2475,2472,2460,2466,2470,2578,2681,2746,2807,2992,3036,3075,3108,3059,2995,2892,2794,2792,2810,2807,2784,2725,2658,2588,2538,2495,2486,2475,2470,2459,2453,2453,2501,2531,2575,2740,2932,2984,3031,3077,2998,2926,2888,2801,2779,2766,2750,2756,2773,2783,2776,2768,2718,2623,2601,2536,2520,2471,2451,2443,2440,2439,2431,2430,2473,2598,2974,3091,3033,2921,2885,2788,2743,2737,2741,2765,2795,2796,2762,2699,2673,2650,2576,2558,2507,2497,2472,2464,2460,2456,2452,2448,2461,2529,2570,2670,2852,3008,3039,3028,2881,2771,2704,2704,2730,2771,2782,2752,2665,2589,2530,2512,2500,2468,2463,2451,2449,2448,2456,2518,2557,2718,2918,3077,3131,3045,2917,2875,2836,2749,2734,2728,2737,2762,2788,2801,2796,2728,2652,2626,2554,2533,2515,2473,2432,2450,2539,2588,2777,2982,3038,3083,3143,3091,3055,3014,2882,2841,2805,2735,2726,2744,2776,2783,2774,2762,2700,2623,2596,2571,2526,2463,2435,2417,2428,2546,2599,2797,2998,3052,3133,3120,3026,2892,2852,2814,2740,2729,2734,2744,2779,2789,2766,2701,2588,2559,2489,2409,2392,2386,2399,2475,2520,2702,2913,2974,3026,3105,3034,2995,2860,2818,2781,2709,2699,2709,2720,2761,2769,2765,2752,2693,2611,2585,2559,2494,2444,2421,2401,2404,2473,2621,2685,2884,3033,3058,3071,3030,2914,2868,2824,2716,2694,2671,2704,2757,2751,2703,2627,2601,2527,2507,2431,2417,2620,2901,3111,3130,3040,2904,2779,2752,2728,2707,2711,2723,2757,2771,2764,2755,2670,2584,2561,2488,2438,2395,2393,2631,2857,3104,3150,3041,2907,2860,2745,2728,2733,2763,2766,2772,2750,2693,2664,2638,2550,2483,2460,2447,2394,2378,2384,2487,2664,2814,3023,3126,3134,2991,2858,2757,2739,2716,2723,2747,2760,2748,2731,2664,2633,2548,2519,2452,2432,2397,2376,2373,2373,2367,2366,2391,2491,2685,2983,3117,3122,3094,3062,2927,2885,2773,2752,2723,2747,2768,2775,2760,2701,2613,2587,2557,2489,2430,2419,2406,2396,2397,2391,2387,2384,2392,2449,2492,2664,2737,2941,3073,3086,3091,3018,2845,2808,2715,2694,2696,2710,2757,2658,2499,2442,2406,2392,2397,2464,2614,2906,3038,3091,3121,3140,2860,2762,2726,2751,2767,2782,2760,2736,2716,2597,2509,2489,2430,2404,2394,2394,2385,2388,2384,2384,2419,2443,2659,2898,2971,3147,3182,3057,2918,2800,2749,2741,2746,2762,2782,2790,2787,2732,2614,2586,2496,2410,2392,2374,2372,2362,2364,2376,2477,2763,3007,3179,3142,3065,2923,2871,2767,2742,2725,2726,2765,2785,2764,2692,2604,2569,2491,2405,2386,2385,2392,2385,2387,2391,2549,2774,3008,3077,3177,3184,3167,3066,2862,2780,2712,2734,2786,2795,2792,2774,2672,2580,2545,2476,2418,2400,2390,2391,2448,2587,2883,2963,3159,3145,2934,2787,2700,2724,2772,2801,2762,2643,2540,2517,2487,2431,2389,2379,2376,2520,3068,3238,3066,2809,2736,2792,2815,2660,2565,2474,2420,2380,2370,2366,2360,2369,2376,2473,2745,2826,3075,3214,3233,3226,3142,3090,3042,2875,2741,2733,2734,2780,2788,2801,2750,2667,2561,2534,2448,2432,2382,2378,2366,2359,2352,2340,2345,2374,2412,2450,2654,2906,2993,3168,3199,3204,3148,3054,2885,2763,2711,2712,2765,2792,2718,2692,2582,2492,2459,2441,2382,2363,2367,2367,2369,2362,2367,2373,2408,2537,2610,2845,2934,3173,3181,3161,3118,2968,2803,2767,2729,2693,2722,2764,2815,2814,2787,2669,2560,2449,2403,2367,2356,2348,2352,2374,2495,2550,2625,2869,2958,3151,3193,3197,3174,2970,2799,2761,2722,2681,2695,2706,2731,2747,2798,2784,2773,2688,2660,2621,2526,2492,2428,2381,2376,2353,2355,2363,2414,2585,2656,2922,3004,3089,3238,3243,3008,2783,2743,2775,2817,2708,2570,2484,2415,2389,2363,2356,2475,2754,3081,3221,3176,3026,2873,2825,2795,2731,2753,2773,2797,2784,2741,2639,2567,2474,2385,2365,2342,2328,2321,2327,2400,2439,2642,2718,2978,3194,3201,3109,2958,2898,2775,2719,2720,2770,2781,2813,2804,2727,2702,2597,2509,2435,2399,2373,2374,2359,2369,2391,2498,2627,2942,3127,3155,3159,3040,2993,2934,2790,2696,2690,2731,2790,2788,2761,2733,2710,2605,2510,2476,2412,2381,2349,2348,2334,2354,2402,2550,2854,2937,3102,3133,3138,3085,2931,2879,2817,2688,2625,2629,2629,2684,2732,2704,2689,2660,2577,2488,2468,2442,2393,2389,2384,2392,2388,2402,2508,2696,2781,2861,3105,3211,3238,3097,3051,2853,2766,2759,2760,2805,2814,2788,2775,2745,2616,2525,2490,2429,2387,2377,2374,2371,2364,2366,2402,2442,2484,2697,2775,2869,3102,3231,3226,3122,2974,2878,2778,2755,2769,2792,2803,2798,2768,2653,2542,2515,2409,2358,2344,2344,2339,2349,2347,2339,2338,2380,2469,2687,2765,3013,3149,3169,3162,3086,2935,2839,2746,2725,2721,2731,2789,2802,2782,2720,2615,2521,2426,2384,2374,2369,2363,2367,2361,2377,2540,2812,3002,3038,3077,2952,2899,2759,2658,2648,2637,2669,2683,2708,2749,2735,2721,2637,2521,2500,2433,2389,2388,2372,2375,2369,2377,2464,2628,2705,2930,3005,3137,3144,3037,2847,2753,2721,2733,2738,2797,2828,2817,2768,2710,2608,2497,2430,2406,2402,2411,2502,2745,3038,3158,3168,3100,2962,2922,2805,2786,2763,2760,2788,2806,2810,2819,2714,2627,2516,2453,2446,2430,2426,2409,2412,2410,2400,2394,2386,2391,2438,2588,2649,2725,2942,3098,3114,3125,3067,3037,2901,2862,2756,2741,2724,2735,2781,2794,2794,2741,2722,2689,2603,2568,2493,2434,2427,2412,2401,2392,2393,2395,2381,2375,2437,2589,2650,2868,2929,2990,3075,3053,2989,2861,2765,2740,2731,2726,2786,2804,2811,2776,2693,2607,2572,2507,2455,2449,2436,2422,2416,2425,2512,2552,2733,2868,3029,3084,3073,2965,2834,2787,2721,2683,2697,2731,2779,2772,2765,2698,2677,2564,2489,2476,2430,2428,2406,2409,2401,2403,2442,2556,2619,2681,2906,3134,3154,3154,3124,3016,2965,2850,2770,2824,2791,2619,2465,2416,2530,3031,3010,2731,2796,2693,2463,2391,2455,2998,3047,2711,2760,2728,2511,2416,2600,3013,2955,2672,2721,2764,2747,2676,2553,2463,2361,2337,2325,2392,2444,2496,2793,3045,3105,3091,2961,2835,2736,2710,2730,2749,2780,2763,2751,2651,2543,2460,2417,2416,2433,2464,2736,3014,3131,3115,2965,2795,2732,2720,2753,2759,2771,2727,2683,2607,2576,2514,2492,2482,2447,2432,2423,2417,2555,2807,3046,3103,3055,3015,2978,2844,2810,2772,2718,2714,2728,2736,2770,2731,2663,2573,2550,2478,2464,2421,2417,2406,2396,2388,2387,2396,2459,2506,2753,2955,3015,3067,2948,2823,2730,2721,2713,2728,2761,2782,2700,2620,2487,2439,2402,2393,2435,2552,2614,2671,2879,20
2268,2205,2198,2192,2338,2426,2546,2992,3588,3771,3754,3558,3448,3109,2764,2713,2672,2677,2699,2757,2775,2735,2698,2569,2418,2333,2246,2196,2192,2182,2172,2180,2292,2625,3126,3743,3939,3820,3554,3447,3154,3069,2913,2882,2868,2868,2878,2855,2757,2660,2503,2349,2310,2267,2183,2120,2109,2089,2052,2051,2088,2611,3132,3294,3658,3654,3573,3258,2828,2745,2612,2591,2616,2630,2681,2602,2425,2212,2103,2053,2032,2009,1988,2006,2165,2271,2694,3199,3548,3615,3364,3254,2875,2521,2485,2474,2507,2541,2721,2705,2683,2554,2414,2365,2267,2238,2190,2173,2152,2257,2328,2682,2823,2982,3570,3579,3514,3208,2831,2727,2505,2462,2535,2725,2744,2710,2596,2542,2400,2251,2171,2145,2225,2296,2401,2840,3376,3864,3895,3595,2998,2769,2691,2710,2780,2795,2784,2569,2405,2259,2187,2114,2062,2067,2082,2296,2917,3101,3608,3852,3862,3683,3584,3470,2920,2728,2702,2680,2717,2720,2669,2439,2227,2102,2076,1999,1984,1938,2001,2271,2750,3276,3427,3678,3500,3401,3038,2927,2819,2569,2562,2577,2628,2681,2613,2472,2323,2272,2161,2081,2030,1999,2015,2169,2528,2989,3444,3455,3311,2849,2731,2635,2437,2418,2491,2578,2614,2650,2627,2500,2444,2302,2187,2163,2094,2115,2172,2248,2785,2959,3438,3710,3690,3333,2956,2849,2613,2560,2646,2670,2705,2683,2561,2513,2306,2186,2161,2087,2046,2043,2044,2185,2739,3299,3476,3629,3906,3737,3640,3090,2853,2755,2783,2790,2790,2705,2561,2387,2337,2198,2111,2051,1997,1996,2153,2558,2925,3471,3620,3827,3617,3512,3052,2797,2747,2704,2668,2690,2703,2682,2582,2541,2491,2350,2262,2153,2085,2063,2050,2002,1965,2113,2495,3017,3484,3645,3415,3306,3180,2832,2594,2556,2526,2547,2622,2648,2650,2546,2503,2306,2258,2124,2072,2056,2016,1989,1984,2163,2545,2879,3357,3479,3607,3434,3318,2923,2676,2439,2409,2434,2636,2686,2751,2728,2613,2402,2268,2182,2155,2138,2111,2263,2367,2489,2964,3444,3570,3720,3455,3074,2720,2639,2509,2549,2580,2621,2710,2708,2679,2499,2346,2297,2162,2141,2079,2119,2187,2279,2722,3279,3457,3840,3900,3895,3837,3755,3436,2977,2891,2708,2697,2725,2736,2750,2734,2641,2482,2428,2223,2179,2087,2020,1985,1977,2031,2100,2458,3004,3379,3761,3817,3753,3345,3008,2913,2726,2691,2675,2688,2699,2624,2585,2535,2379,2224,2182,2139,2048,1981,1965,1945,1916,1959,2201,2662,3197,3580,3631,3583,3290,2935,2827,2740,2569,2571,2600,2672,2689,2639,2507,2459,2305,2153,2128,2098,2016,1901,1861,1751,1747,1762,1810,2115,2599,2763,3151,3243,3211,2860,2749,2483,2368,2393,2537,2692,2764,2717,2602,2554,2437,2354,2307,2292,2325,2536,2650,2792,3433,3818,3892,3926,3820,3517,3399,3273,2946,2807,2746,2740,2798,2867,2877,2807,2761,2600,2385,2338,2238,2211,2158,2142,2103,2183,2259,2367,2829,3377,3541,3687,3908,3865,3612,3267,3155,3046,2817,2724,2762,2760,2745,2636,2531,2363,2213,2174,2136,2039,1997,1982,1965,2118,3023,3613,3711,3674,3411,3059,2946,2692,2584,2579,2584,2680,2653,2537,2489,2435,2285,2162,2133,2067,2036,2029,2025,2005,2034,2080,2358,2820,3162,3317,3630,3661,3467,3121,2997,2884,2629,2546,2552,2688,2783,2793,2794,2722,2682,2530,2480,2341,2305,2272,2199,2146,2135,2150,2340,2448,2579,3206,3577,3643,3627,3562,3128,3007,2706,2637,2546,2629,2663,2741,2689,2558,2509,2457,2318,2172,2155,2112,2100,2120,2328,2599,3131,3636,3855,3901,3848,3573,3461,3113,2859,2769,2746,2748,2792,2790,2687,2421,2265,2149,2073,2055,2038,1985,2017,2068,2381,2535,3085,3592,3827,3731,3645,3312,3196,3085,2823,2693,2677,2684,2708,2700,2683,2584,2435,2383,2330,2194,2069,2047,1989,1954,1943,1964,2291,2434,3137,3568,3647,3660,3598,3513,3174,3056,2756,2604,2587,2621,2647,2736,2711,2548,2443,2295,2254,2159,2138,2092,2082,2041,2088,2145,2452,2914,3077,3550,3567,3508,3425,3079,2954,2836,2567,2474,2481,2584,2630,2737,2752,2753,2684,2539,2334,2151,2121,2146,2359,2939,3278,3662,3744,3428,3051,2932,2826,2613,2574,2591,2689,2720,2746,2753,2734,2615,2566,2362,2245,2217,2152,2119,2104,2242,2344,2472,2984,3669,3882,3916,3581,3231,2856,2801,2734,2774,2784,2775,2685,2538,2378,2329,2204,2075,2012,2065,2345,2489,2658,3403,3840,3855,3698,3360,3238,3119,2825,2653,2661,2705,2693,2555,2396,2340,2189,2145,2107,2016,1959,1942,1930,1892,1934,1989,2478,2654,2838,3375,3680,3705,3456,3074,2945,2716,2625,2481,2470,2479,2609,2686,2693,2598,2549,2393,2201,2162,2080,2059,2015,1974,1990,2027,2091,2576,2741,3250,3579,3621,3623,3438,2930,2799,2684,2447,2418,2446,2598,2755,2761,2757,2664,2619,2408,2271,2237,2201,2128,2148,2202,2674,3205,3676,3859,3605,3210,3068,2938,2639,2534,2536,2631,2733,2753,2757,2656,2502,2443,2245,2209,2091,2056,2080,2314,2456,2995,3185,3696,3824,3965,3868,3348,2912,2741,2789,2830,2715,2485,2216,2079,2004,2191,2621,3189,3780,3847,3491,3237,2885,2640,2629,2642,2662,2701,2633,2438,2276,2041,1933,2057,2415,3117,3538,3609,3599,3525,3187,2700,2610,2468,2544,2680,2678,2575,2412,2213,2176,2080,2058,2016,1997,2234,2647,2807,3281,3397,3553,3290,2901,2660,2435,2399,2517,2647,2675,2572,2520,2471,2315,2166,2141,2102,2270,2836,3642,3763,3507,3003,2893,2792,2617,2617,2690,2711,2701,2680,2642,2501,2291,2169,2141,2112,2028,2113,2606,3168,3351,3522,3836,3733,3639,3174,2809,2698,2714,2729,2731,2720,2620,2307,2138,1997,1971,2239,2697,3231,3670,3618,3319,3200,2753,2670,2539,2524,2554,2570,2609,2551,2510,2313,2173,2129,2013,1972,1957,1950,1919,1916,2036,2369,2528,3224,3571,3618,3621,3440,2945,2819,2546,2515,2668,2695,2617,2569,2415,2234,2199,2176,2118,2087,2075,2105,2144,2213,2690,3169,3597,3626,3494,3160,2780,2472,2446,2531,2570,2620,2469,2316,2262,2111,2052,2031,1995,2114,2453,3334,3484,3750,3675,3380,3013,2673,2597,2648,2685,2576,2363,2159,2049,1962,1917,1901,1944,2327,2481,3029,3609,3649,3578,3170,2873,2791,2622,2630,2646,2656,2568,2531,2380,2189,2057,2038,2015,1977,1940,1963,2083,2451,2610,3300,3624,3563,3270,2848,2771,2605,2595,2639,2657,2702,2654,2488,2437,2394,2260,2142,2126,2085,2060,2057,2039,2267,2657,3312,3452,3667,3674,3402,2936,2616,2586,2612,2782,2852,2846,2778,2586,2401,2360,2280,2209,2191,2185,2215,2551,2693,3164,3727,3676,3278,3159,2815,2733,2575,2662,2782,2771,2751,2713,2583,2435,2289,2267,2204,2175,2158,2171,2369,2483,2969,3146,3644,3919,3919,3710,3381,3048,2822,2749,2804,2818,2818,2725,2673,2516,2274,2243,2162,2146,2084,2115,2249,2814,3525,3852,3843,3783,3483,3250,2944,2728,2707,2727,2753,2744,2677,2634,2490,2433,2285,2136,2105,2025,2013,1985,2058,2231,2668,3373,3519,3735,3540,3438,3074,2961,2853,2642,2602,2596,2670,2701,2738,2654,2562,2351,2227,2089,2050,2696,3189,3568,2916,2543,2471,2576,2614,2712,2704,2684,2644,2509,2317,2273,2183,2115,2107,2158,2307,2423,2877,3393,3532,3776,3602,3492,2988,2588,2559,2641,2666,2719,2712,2700,2546,2386,2251,2180,2101,2085,2036,2036,2136,2228,2650,2838,3565,3705,3925,3916,3716,3270,3150,2870,2715,2769,2766,2671,2513,2302,2183,2075,2008,2353,3528,3609,2860,2123,2071,2171,2271,2275,2249,2151,2108,2074,1968,1905,1888,1882,1862,1874,1906,2138,2797,3000,3547,3785,3851,3611,3246,3120,2764,2729,2706,2760,2918,2951,2817,2762,2501,2437,2290,2122,2182,2982,3802,3553,3159,2690,2544,2641,2832,2870,2819,2607,2423,2321,2206,2148,2172,2417,2864,3046,3678,3826,3578,3456,3044,2920,2635,2554,2548,2615,2735,2758,2775,2738,2547,2491,2273,2151,2072,2063,2087,2347,3040,3580,3954,3952,3752,3656,3192,2984,2791,2760,2810,2818,2795,2563,2381,2177,2039,1992,2011,2213,2651,3200,3757,3470,3116,2735,2606,2605,2632,2626,2525,2483,2270,2115,2030,1930,1843,1919,2213,2350,2507,2987,3127,3236,3354,3146,3043,2733,2463,2432,2450,2519,2532,2502,2396,2349,2306,2173,2137,2040,1938,1934,2179,2291,2688,2828,3214,3241,3001,2706,2480,2433,2422,2536,2573,2654,2605,2445,2318,2284,2173,2161,2268,2672,2805,3175,3375,3198,2835,2597,2636,2709,2696,2601,2564,2410,2299,2277,2249,2352,2526,2911,3052,3439,3610,3581,3389,3125,3045,2972,2799,2801,2818,2785,2758,2517,2405,2317,2237,2253,2425,2894,3277,3488,3505,3348,3112,2964,2774,2730,2742,2732,2718,2606,2447,2408,2309,2280,2257,2194,2134,2133,2221,2477,2593,2719,3096,3330,3328,3151,2835,2670,2637,2615,2610,2659,2663,2643,2563,2527,2408,2270,2243,2219,2167,2153,2120,2097,2111,2143,2344,2815,2945,3249,3335,3311,3128,2783,2711,2553,2609,2720,2736,2703,2603,2564,2414,2329,2264,2228,2213,2221,2464,2808,3267,3337,3350,3042,2948,2700,2549,2548,2602,2656,2698,2640,2526,2365,2331,2231,2181,2168,2181,2224,2485,3226,3371,3656,3663,3538,3251,2890,2828,2713,2747,2770,2767,2754,2670,2494,2360,2257,2230,2207,2137,2096,2092,2229,2557,2864,3335,3460,3559,3659,3502,3110,3012,2788,2738,2703,2666,2712,2690,2669,2561,2376,2251,2153,2090,2043,2003,2010,2123,2725,3186,3316,3417,3534,3296,3193,2880,2598,2542,2598,2622,2652,2695,2684,2604,2473,2432,2386,2277,2181,2162,2150,2111,2094,2222,2527,2665,2808,3233,3341,3426,3452,2779,2484,2584,2711,2720,2639,2560,2439,2399,2280,2225,2241,2348,2672,2811,3268,3660,3626,3562,3472,3025,2668,2575,2641,2669,2700,2741,2633,2499,2339,2193,2169,2366,2473,2935,3449,3720,3883,3642,3298,2882,2721,2702,2757,2647,2503,2316,2215,2124,2083,2093,2111,2318,2883,3495,3685,3683,3388,3030,2923,2658,2607,2537,2560,2633,2647,2663,2640,2548,2407,2316,2208,2175,2094,2061,2076,2119,2174,2489,2781,3238,3368,3564,3476,3387,3059,2936,2567,2522,2483,2507,2616,2720,2731,2738,2680,2477,2431,2328,2246,2187,18
2615,2477,2439,2389,2369,2364,2362,2364,2362,2365,2358,2358,2351,2342,2341,2372,2409,2456,2699,3257,3354,3530,3535,3501,3356,3294,3177,3124,3071,2956,2926,2907,2874,2872,2856,2823,2800,2721,2653,2547,2516,2457,2381,2334,2301,2288,2283,2283,2280,2280,2281,2278,2272,2271,2274,2294,2430,2511,2828,2957,3316,3414,3489,3594,3529,3436,3271,3116,3004,2929,2898,2888,2876,2837,2742,2709,2606,2568,2534,2436,2359,2337,2319,2265,2242,2239,2222,2206,2183,2161,2153,2137,2137,2205,2421,2525,2773,3174,3468,3571,3563,3460,3408,3243,3190,3018,2987,2918,2904,2880,2869,2831,2812,2737,2707,2675,2568,2467,2436,2359,2303,2277,2248,2239,2235,2237,2236,2235,2230,2228,2217,2224,2242,2276,2477,2822,3096,3454,3538,3597,3642,3478,3418,3239,3184,3091,3052,3017,2946,2919,2888,2876,2840,2817,2791,2691,2654,2537,2501,2403,2376,2311,2296,2261,2244,2241,2241,2240,2242,2244,2254,2266,2262,2252,2263,2376,2637,2753,3374,3580,3587,3505,3449,3318,3064,2935,2907,2864,2860,2859,2848,2801,2775,2681,2644,2536,2387,2366,2314,2286,2274,2272,2278,2276,2264,2270,2422,2702,3071,3194,3473,3565,3527,3372,3309,3177,3116,3059,2924,2895,2871,2838,2835,2830,2828,2820,2775,2720,2579,2470,2354,2296,2262,2256,2250,2246,2246,2249,2255,2262,2260,2261,2253,2250,2262,2288,2465,2560,2930,3070,3450,3547,3692,3696,3603,3551,3491,3305,3145,3103,3003,2964,2928,2916,2871,2793,2762,2726,2574,2468,2381,2359,2339,2295,2284,2265,2261,2257,2256,2256,2254,2246,2231,2234,2337,2406,2714,2843,3241,3456,3618,3587,3548,3384,3325,3156,3107,2988,2958,2932,2878,2864,2820,2801,2726,2553,2483,2391,2317,2300,2268,2218,2207,2203,2201,2194,2193,2166,2170,2187,2340,2641,2768,3155,3270,3491,3522,3495,3458,3409,3138,2999,2905,2848,2835,2821,2781,2718,2629,2525,2494,2371,2284,2242,2214,2212,2207,2205,2200,2196,2191,2182,2170,2173,2228,2508,2731,3092,3358,3410,3376,3225,3166,3013,2970,2884,2855,2841,2832,2743,2617,2521,2489,2414,2392,2374,2331,2308,2297,2293,2290,2286,2287,2280,2273,2261,2266,2287,2433,2516,2832,2955,3075,3379,3522,3406,3246,3193,3141,3014,2926,2910,2883,2855,2817,2795,2718,2617,2548,2427,2404,2343,2304,2293,2273,2257,2251,2243,2234,2221,2218,2204,2230,2306,2540,2650,2898,3026,3153,3448,3568,3521,3392,3339,3194,3070,3004,2936,2917,2889,2876,2858,2801,2715,2684,2647,2505,2474,2384,2300,2287,2252,2233,2221,2216,2216,2208,2201,2195,2193,2184,2195,2212,2364,2443,2775,2898,3257,3470,3502,3481,3450,3304,3254,3199,3060,3017,2920,2892,2840,2823,2785,2749,2704,2675,2587,2521,2425,2351,2326,2278,2254,2229,2226,2215,2216,2213,2215,2214,2217,2215,2211,2206,2205,2221,2245,2341,2608,2972,3322,3405,3543,3502,3466,3417,3253,3057,3018,2934,2919,2898,2845,2764,2660,2628,2534,2460,2438,2422,2381,2374,2356,2356,2354,2358,2366,2370,2371,2368,2357,2353,2402,2442,2665,3117,3229,3490,3567,3557,3528,3389,3329,3161,3109,2991,2960,2907,2885,2864,2811,2730,2662,2591,2555,2438,2353,2334,2318,2314,2314,2317,2313,2308,2290,2329,2366,2595,2949,3085,3213,3532,3660,3664,3644,3522,3350,3295,3239,3106,3007,2963,2923,2877,2812,2715,2683,2569,2437,2412,2341,2326,2295,2274,2251,2242,2237,2231,2229,2221,2215,2209,2202,2242,2286,2342,2622,3010,3148,3274,3557,3604,3624,3500,3326,3064,2963,2899,2862,2832,2769,2745,2651,2619,2518,2489,2387,2331,2320,2288,2267,2256,2249,2217,2192,2188,2174,2174,2170,2164,2160,2156,2161,2170,2346,2531,2648,2772,3163,3375,3506,3535,3511,3360,3236,3067,3018,2982,2904,2895,2888,2888,2892,2883,2819,2793,2656,2547,2516,2430,2409,2386,2344,2317,2315,2308,2307,2303,2291,2273,2229,2302,2517,2621,2979,3214,3457,3518,3440,3281,3120,3069,2932,2880,2852,2817,2734,2633,2523,2385,2319,2287,2282,2280,2278,2271,2271,2280,2399,2468,2785,3178,3416,3636,3656,3631,3589,3431,3258,3118,2995,2943,2910,2879,2806,2703,2669,2558,2468,2437,2414,2333,2316,2272,2256,2244,2240,2232,2226,2215,2203,2188,2225,2270,2329,2627,2755,3187,3442,3669,3620,3457,3236,3191,3067,3036,2954,2900,2880,2862,2791,2658,2622,2499,2387,2350,2320,2240,2189,2174,2166,2148,2147,2142,2145,2147,2149,2151,2146,2146,2142,2131,2143,2202,2426,2812,2961,3398,3513,3609,3733,3666,3613,3555,3297,3132,3090,2987,2910,2898,2847,2742,2670,2594,2557,2515,2412,2323,2301,2278,2233,2202,2198,2188,2189,2188,2191,2189,2194,2192,2183,2171,2164,2176,2199,2382,2721,3152,3510,3673,3584,3525,3462,3247,3119,2976,2900,2891,2879,2860,2847,2771,2740,2626,2589,2473,2440,2406,2329,2252,2246,2234,2236,2235,2237,2234,2233,2292,2406,2591,2963,3452,3627,3596,3554,3366,2984,2876,2828,2825,2818,2815,2806,2753,2724,2619,2457,2347,2318,2290,2227,2188,2183,2176,2172,2181,2186,2188,2185,2184,2191,2290,2357,2671,3241,3373,3655,3720,3612,3355,3169,3028,2991,2961,2902,2890,2857,2842,2779,2750,2643,2603,2484,2378,2317,2249,2207,2183,2176,2179,2180,2180,2179,2170,2166,2168,2184,2214,2414,2517,2918,3064,3458,3623,3683,3514,3451,3253,3086,3041,3002,2916,2897,2858,2818,2748,2650,2610,2492,2451,2347,2242,2177,2149,2137,2127,2128,2125,2122,2121,2108,2105,2098,2173,2406,2520,2647,3081,3220,3534,3593,3622,3592,3548,3362,3160,3100,3048,2929,2871,2863,2859,2844,2787,2763,2667,2631,2517,2446,2357,2331,2273,2237,2231,2225,2220,2219,2224,2226,2227,2230,2224,2221,2216,2212,2221,2245,2412,2722,3108,3489,3549,3525,3372,3023,2870,2785,2783,2788,2792,2795,2768,2693,2586,2549,2439,2407,2377,2303,2254,2243,2221,2217,2215,2216,2218,2224,2226,2228,2228,2221,2221,2266,2367,2653,3051,3189,3525,3596,3668,3614,3446,3244,3124,3073,2960,2907,2900,2888,2859,2843,2821,2732,2544,2442,2412,2386,2306,2272,2265,2249,2248,2249,2248,2249,2244,2243,2229,2227,2226,2401,2830,3234,3538,3596,3613,3469,3408,3226,3036,3001,2930,2894,2877,2811,2785,2652,2503,2408,2381,2335,2315,2299,2263,2254,2237,2231,2230,2228,2227,2223,2212,2209,2273,2478,2691,3072,3304,3518,3519,3481,3324,3064,2958,2897,2885,2875,2848,2801,2779,2754,2661,2591,2487,2425,2352,2297,2258,2254,2242,2240,2241,2239,2239,2237,2231,2213,2205,2208,2222,2353,2425,2843,3182,3271,3440,3382,3336,3173,3115,2970,2930,2858,2846,2841,2841,2839,2830,2819,2755,2665,2631,2599,2505,2480,2409,2364,2352,2345,2324,2323,2318,2320,2318,2317,2311,2306,2296,2297,2371,2663,3105,3476,3385,3224,3064,2915,2890,2859,2853,2853,2841,2833,2780,2756,2631,2529,2500,2420,2366,2328,2310,2299,2298,2299,2301,2294,2285,2467,2885,3263,3371,3591,3619,3631,3559,3406,3347,3292,3139,3029,3001,2948,2925,2891,2857,2784,2685,2581,2546,2516,2434,2415,2364,2345,2339,2331,2308,2301,2285,2260,2242,2228,2216,2219,2312,2561,2674,3210,3596,3656,3499,3437,3257,3200,3151,3027,2937,2928,2900,2861,2839,2818,2726,2619,2581,2548,2449,2375,2353,2337,2295,2288,2277,2257,2255,2251,2252,2250,2247,2244,2239,2232,2229,2282,2324,2387,2669,3060,3314,3572,3618,3611,3528,3344,3152,3010,2971,2908,2895,2890,2877,2874,2836,2817,2730,2698,2514,2423,2349,2306,2289,2274,2277,2275,2285,2286,2293,2299,2299,2306,2300,2301,2301,2360,2637,2740,3108,3499,3546,3567,3486,3291,3025,2975,2865,2833,2840,2820,2800,2779,2682,2647,2607,2496,2400,2376,2351,2301,2270,2266,2260,2263,2274,2277,2271,2363,2714,3113,3477,3672,3684,3566,3374,3304,3241,3075,2972,2947,2934,2908,2905,2878,2756,2561,2420,2344,2279,2266,2251,2245,2246,2250,2254,2258,2257,2232,2451,3076,3480,3707,3735,3633,3439,3373,3181,3047,3011,2987,2928,2900,2890,2827,2765,2655,2454,2276,2231,2218,2221,2222,2222,2208,2197,2214,2352,2438,2787,3212,3338,3453,3662,3268,2947,2876,2854,2836,2745,2640,2527,2414,2327,2263,2252,2237,2220,2216,2222,2235,2242,2235,2286,2328,2566,2801,3318,3606,3518,3238,3159,2964,2837,2815,2796,2808,2810,2774,2754,2724,2620,2494,2457,2417,2321,2250,2235,2218,2196,2191,2192,2206,2208,2218,2221,2211,2211,2220,2530,2924,3599,3764,3714,3661,3603,3386,3316,3123,2993,2912,2897,2862,2793,2690,2648,2609,2482,2273,2222,2199,2186,2183,2185,2183,2174,2153,2165,2198,2401,2788,2941,3105,3654,3824,3800,3707,3423,3352,3158,2955,2910,2845,2758,2679,2547,2425,2385,2220,2181,2159,2156,2154,2161,2160,2167,2167,2162,2163,2150,2133,2213,2585,3031,3690,3754,3495,3264,3031,2938,2925,2906,2836,2700,2531,2383,2298,2245,2222,2204,2207,2213,2227,2230,2228,2221,2241,2468,2572,2956,3360,3554,3659,3503,3356,3056,2903,2828,2822,2819,2833,2799,2714,2555,2511,2363,2336,2265,2225,2203,2200,2212,2216,2207,2254,2451,2953,3387,3511,3738,3766,3663,3602,3399,3201,3149,2989,2961,2910,2904,2862,2790,2754,2593,2472,2363,2285,2209,2187,2189,2194,2193,2182,2180,2179,2449,2975,3403,3521,3718,3735,3725,3602,3399,3264,3046,2945,2920,2878,2828,2727,2454,2349,2210,2175,2159,2160,2162,2159,2158,2141,2123,2166,2209,2274,2581,2718,3163,3533,3685,3632,3385,3064,2946,2917,2873,2818,2713,2600,2444,2348,2319,2258,2211,2203,2197,2197,2200,2207,2203,2197,2200,2250,2460,3089,3452,3590,3612,3336,3119,2958,2916,2850,2832,2834,2830,2811,2744,2715,2677,2561,2518,2481,2349,2280,2243,2233,2221,2217,2220,2225,2224,2226,2216,2214,2245,2410,2506,2878,3024,3425,3533,3701,3698,3572,3376,3132,3084,2968,2944,2921,2881,2842,2804,2720,2607,2570,2527,2417,2300,2276,2230,2217,2209,2193,2187,2188,2192,2187,2186,2166,2192,2365,2465,2860,3311,3644,3757,3672,3621,3560,3363,3130,3082,2977,2908,2896,2879,2830,2752,2723,2687,2572,2493,2353,2272,2253,2205,2179,2172,2163,2160,2156,14
3281,3180,3118,3065,2904,2865,2762,2743,2692,2679,2676,2671,2652,2636,2584,2502,2401,2349,2309,2301,2298,2304,2313,2322,2333,2335,2344,2381,2416,2521,2587,2670,3039,3252,3295,3308,3221,3098,2995,2962,2897,2876,2848,2840,2828,2813,2789,2781,2764,2712,2687,2638,2615,2586,2515,2490,2436,2405,2368,2366,2350,2355,2354,2374,2393,2405,2409,2448,2651,2885,2962,3041,3189,3208,3173,3145,3021,2985,2874,2819,2767,2728,2724,2706,2707,2683,2676,2630,2575,2533,2469,2431,2390,2374,2347,2332,2311,2299,2300,2296,2301,2299,2305,2307,2317,2482,2623,2789,3030,3160,3176,3130,3103,3032,2994,2963,2873,2857,2839,2819,2815,2825,2827,2840,2824,2818,2802,2754,2731,2672,2649,2596,2577,2540,2518,2503,2494,2493,2487,2491,2505,2523,2624,2680,2873,3119,3188,3176,3160,3050,3010,2811,2748,2730,2737,2743,2778,2787,2804,2783,2756,2704,2648,2633,2616,2577,2543,2535,2527,2530,2582,2732,3013,3141,3239,3166,3043,2997,2887,2816,2806,2797,2804,2835,2829,2819,2798,2712,2556,2513,2413,2341,2327,2310,2279,2243,2241,2263,2308,2348,2540,2621,2904,3087,3284,3325,3358,3357,3335,3321,3292,3284,3273,3266,3230,3209,3107,3081,3035,3017,3007,2997,3008,3051,3069,3134,3195,3255,3283,3346,3377,3400,3442,3475,3516,3697,3923,4037,4066,4065,4063,4042,3970,3938,3902,3795,3761,3696,3684,3688,3706,3698,3649,3508,3304,3092,3028,2975,2850,2820,2767,2741,2719,2646,2620,2591,2509,2552,2590,2777,3016,3204,3256,3215,3175,3120,2846,2711,2654,2600,2490,2464,2420,2408,2364,2246,2031,1793,1723,1523,1481,1481,1481,1480,1480,1480,1480,1480,1481,1483,1544,1720,1872,2033,2240,2280,2302,2288,2264,2154,2112,2069,1953,1871,1872,1927,2016,2046,2103,2163,2176,2183,2182,2176,2167,2129,2084,2061,2055,2095,2119,2146,2265,2311,2491,2566,2837,3085,3150,3200,3240,3208,3159,2831,2536,2438,2340,2070,1816,1722,1714,1723,1738,1784,1801,1838,1870,1888,1921,1927,1939,1961,1973,2006,2030,2050,2047,2047,2066,2125,2294,2541,2803,2987,3066,3070,3048,2981,2963,2951,2944,2924,2886,2823,2733,2702,2565,2456,2385,2294,2230,2205,2201,2221,2260,2414,2744,2886,3041,3355,3845,3910,3965,3908,3817,3604,3463,3335,3288,3273,3241,3134,3028,2893,2850,2714,2675,2565,2535,2456,2419,2393,2386,2392,2401,2410,2452,2482,2493,2523,2552,2736,2840,3243,3522,3869,4041,4003,3914,3798,3728,3724,3743,3762,3781,3842,3844,3765,3704,3459,3139,2917,2539,2469,2402,2273,2217,2215,2216,2223,2232,2234,2245,2268,2283,2298,2429,2701,2822,2946,3339,3449,3659,3672,3601,3324,3237,3003,2928,2765,2721,2667,2675,2745,2782,2789,2764,2705,2674,2649,2564,2542,2481,2471,2450,2456,2464,2567,3005,3447,3600,3650,3648,3612,3325,3047,2874,2667,2613,2526,2513,2526,2534,2547,2556,2552,2494,2355,2317,2151,2011,1952,1960,2079,2467,2588,2908,3083,3076,2951,2578,2448,2383,2383,2432,2449,2505,2510,2504,2486,2415,2318,2291,2257,2181,2121,2106,2179,2408,2890,3223,3288,3349,3058,2820,2605,2554,2435,2403,2404,2419,2467,2500,2529,2507,2495,2428,2409,2335,2317,2256,2225,2211,2217,2353,2622,2739,2850,3168,3313,3261,3070,3002,2782,2528,2451,2442,2442,2467,2466,2470,2431,2382,2286,2179,2070,2056,2016,2016,2012,2023,2044,2060,2122,2170,2374,2471,2565,2873,3037,3148,3108,2974,2931,2879,2759,2626,2616,2588,2590,2585,2583,2572,2567,2523,2474,2449,2435,2367,2342,2325,2320,2296,2294,2299,2308,2308,2328,2423,2607,2680,2840,2926,3107,3145,3138,3116,3077,2957,2913,2815,2786,2747,2741,2728,2729,2728,2749,2750,2757,2712,2689,2627,2522,2475,2473,2457,2465,2481,2512,2596,2803,2976,3098,3060,3020,2895,2744,2698,2663,2677,2681,2721,2758,2756,2740,2735,2693,2657,2641,2636,2603,2602,2581,2583,2579,2579,2588,2605,2621,2643,2671,2695,2831,2976,3027,3105,3101,2991,2923,2895,2808,2791,2769,2747,2752,2770,2792,2785,2755,2727,2684,2667,2651,2629,2612,2606,2599,2597,2588,2589,2593,2669,2832,2971,2981,2866,2753,2672,2619,2619,2620,2661,2694,2708,2709,2709,2697,2666,2647,2600,2596,2570,2560,2549,2549,2550,2549,2558,2602,2713,2835,2946,2929,2879,2781,2704,2681,2641,2655,2692,2729,2727,2721,2719,2707,2679,2658,2629,2627,2611,2612,2608,2615,2623,2628,2633,2684,2788,2838,3018,3070,2968,2885,2808,2784,2785,2795,2822,2833,2811,2760,2697,2664,2652,2644,2655,2658,2664,2668,2657,2652,2646,2646,2645,2716,2753,2802,3055,3143,3098,3004,2978,2898,2882,2862,2833,2839,2837,2849,2842,2840,2806,2778,2737,2693,2684,2669,2647,2628,2622,2615,2618,2617,2612,2614,2609,2610,2605,2607,2595,2599,2606,2629,2738,2796,2973,3036,3159,3155,3134,3036,2882,2841,2839,2832,2831,2803,2739,2687,2634,2624,2609,2586,2574,2568,2563,2558,2561,2554,2552,2546,2546,2541,2541,2529,2529,2528,2543,2563,2635,2687,2868,2936,3091,3124,3139,3061,2923,2792,2776,2776,2753,2703,2630,2587,2573,2545,2535,2518,2508,2492,2485,2480,2479,2469,2466,2462,2463,2457,2459,2457,2452,2465,2509,2595,2969,3090,3009,2846,2811,2717,2667,2675,2681,2715,2722,2710,2688,2638,2560,2540,2497,2443,2429,2417,2424,2432,2434,2434,2456,2589,2640,2762,2941,3037,2990,2880,2772,2715,2658,2655,2650,2642,2552,2441,2393,2386,2408,2429,2456,2488,2494,2528,2679,2739,2956,3030,3214,3265,3244,3216,3103,2992,2957,2873,2853,2851,2865,2867,2860,2825,2743,2675,2618,2567,2536,2529,2532,2537,2539,2537,2535,2537,2710,3008,3215,3296,3213,3083,3041,3001,2903,2842,2831,2821,2808,2803,2781,2735,2644,2573,2516,2502,2471,2465,2460,2458,2462,2466,2466,2468,2468,2468,2469,2470,2469,2470,2473,2473,2473,2512,2637,2700,2925,3077,3244,3204,3083,3039,2915,2824,2802,2786,2753,2748,2744,2736,2719,2709,2695,2616,2545,2522,2461,2430,2407,2392,2380,2379,2386,2401,2412,2416,2415,2412,2429,2532,2793,3002,3054,3118,3054,2920,2783,2684,2634,2657,2687,2690,2659,2579,2464,2425,2415,2419,2435,2439,2453,2460,2461,2493,2560,2743,2986,3196,3270,3182,3137,3003,2863,2838,2797,2786,2792,2792,2786,2739,2677,2650,2580,2520,2505,2489,2462,2455,2446,2444,2449,2457,2460,2459,2462,2462,2455,2455,2460,2480,2606,2680,2944,3225,3409,3357,3221,3034,2994,2910,2856,2847,2825,2799,2736,2687,2605,2535,2474,2436,2408,2398,2400,2406,2412,2410,2414,2410,2410,2406,2408,2418,2507,2722,3016,3292,3329,3170,3013,2874,2824,2813,2802,2780,2628,2500,2411,2387,2372,2371,2374,2380,2380,2388,2387,2393,2391,2393,2391,2393,2391,2394,2394,2394,2401,2465,2650,3028,3281,3383,3306,3258,3198,2954,2780,2735,2720,2758,2773,2726,2650,2539,2468,2400,2369,2359,2358,2371,2374,2381,2393,2403,2401,2402,2411,2424,2552,2866,2952,3177,3209,3172,3002,2886,2834,2783,2681,2645,2649,2674,2720,2734,2685,2666,2638,2560,2481,2429,2413,2389,2383,2385,2382,2390,2400,2413,2437,2451,2460,2466,2470,2468,2479,2557,2615,2852,3157,3249,3335,3467,3474,3454,3328,3085,3025,2897,2863,2810,2824,2841,2841,2777,2691,2665,2574,2553,2485,2433,2429,2419,2421,2428,2445,2463,2460,2463,2452,2483,2634,2903,3013,3118,3398,3503,3500,3471,3320,3253,3071,3014,2897,2867,2831,2823,2834,2835,2841,2829,2788,2706,2585,2510,2449,2423,2408,2396,2404,2409,2419,2429,2427,2429,2420,2419,2420,2437,2559,2636,2720,3039,3145,3415,3464,3452,3289,3221,3039,2896,2841,2806,2799,2805,2811,2812,2800,2754,2644,2551,2479,2411,2396,2379,2368,2373,2375,2382,2381,2393,2400,2395,2385,2423,2452,2729,3032,3324,3330,3190,2920,2755,2663,2666,2668,2714,2776,2762,2581,2511,2453,2423,2393,2385,2380,2398,2426,2446,2518,2622,2879,3308,3402,3612,3565,3319,3128,3093,3061,2982,2884,2811,2888,3078,3169,3212,3190,3165,3068,2933,2641,2458,2702,3297,3522,3576,3328,2799,2439,2191,2027,1898,1791,1653,1622,1535,1516,1481,1481,1481,1481,1480,1481,1481,1481,1484,1496,1590,2060,2228,2761,2944,3101,3430,3535,3542,3528,3543,3556,3642,3752,3824,3901,3908,3901,3878,3780,3730,3686,3522,3314,3221,3113,2988,2908,2891,2819,2803,2735,2718,2691,2628,2559,2552,2547,2656,2920,3041,3158,3574,3668,3641,3489,3207,3087,3000,2910,2885,2881,2825,2731,2625,2580,2479,2420,2350,2339,2302,2302,2286,2290,2279,2273,2283,2357,2484,2665,2877,3182,3328,3340,3242,3067,2882,2755,2720,2669,2691,2673,2588,2493,2364,2332,2275,2238,2233,2243,2254,2282,2497,2814,3161,3267,3344,3444,3329,3268,3096,2873,2778,2735,2732,2700,2651,2622,2498,2468,2367,2271,2208,2211,2224,2227,2238,2245,2272,2427,2517,2969,3083,3405,3369,3208,3023,2973,2768,2718,2699,2617,2401,2250,2199,2215,2237,2251,2308,2498,2586,2694,3028,3347,3379,3325,3088,3029,2853,2811,2767,2692,2657,2658,2652,2660,2626,2602,2529,2428,2401,2365,2262,2249,2205,2187,2192,2193,2232,2364,2430,2714,2815,2925,3182,3239,3263,3141,2950,2782,2659,2616,2602,2626,2627,2598,2521,2401,2324,2262,2254,2239,2227,2232,2231,2248,2263,2267,2410,2671,2771,3100,3310,3329,3178,3115,2902,2698,2673,2629,2653,2661,2679,2702,2666,2648,2556,2527,2491,2408,2328,2311,2294,2293,2293,2311,2311,2329,2329,2373,2402,2589,2671,2975,3071,3167,3335,3317,3147,2861,2705,2635,2685,2741,2726,2630,2536,2461,2437,2423,2382,2360,2363,2389,2511,2659,2948,3239,3304,3366,3227,3157,2884,2740,2704,2662,2670,2676,2726,2748,2686,2597,2570,2477,2409,2374,2332,2325,2331,2361,2420,2692,3018,3404,3490,3396,3332,3132,3002,2848,2771,2754,2751,2754,2784,2790,2747,2640,2539,2457,2412,2356,2348,2323,2320,2333,2357,2368,2377,2397,2493,2563,2950,3061,3374,3440,3514,3488,3337,2939,2797,2766,2795,2819,2811,2758,2738,2643,2552,2518,2494,2421,2359,2345,2338,2338,2346,2358,2368,2371,2387,2388,2395,2398,2440,2542,2810,26
2857,3366,3781,3943,3976,3926,3870,3810,3505,3195,3077,2981,2889,2874,2861,2847,2814,2793,2703,2662,2478,2343,2302,2206,2180,2144,2125,2120,2118,2131,2135,2142,2156,2167,2167,2155,2149,2119,2109,2098,2115,2372,2628,2780,2946,3437,3577,3840,3871,3805,3592,3331,3099,3032,2977,2885,2808,2796,2811,2808,2796,2780,2728,2615,2573,2529,2371,2310,2247,2223,2216,2211,2213,2226,2231,2241,2242,2238,2232,2207,2195,2169,2170,2181,2306,2484,2882,3323,3452,3559,3734,3625,3556,3319,3078,3009,2843,2804,2772,2733,2733,2755,2762,2766,2751,2681,2646,2609,2485,2370,2306,2240,2208,2202,2200,2202,2206,2216,2219,2228,2231,2233,2232,2223,2218,2212,2187,2171,2179,2291,2463,2864,3346,3737,3905,3848,3792,3504,3358,3227,3067,2988,2911,2875,2869,2845,2832,2769,2668,2548,2431,2394,2307,2249,2218,2206,2203,2201,2197,2196,2184,2177,2168,2160,2148,2146,2133,2134,2145,2171,2268,2443,2844,3473,3605,3713,3851,3753,3682,3451,3299,3228,3166,3008,2971,2937,2868,2866,2865,2853,2838,2769,2734,2698,2573,2419,2387,2309,2270,2260,2258,2256,2260,2271,2285,2285,2288,2285,2284,2264,2258,2247,2226,2187,2184,2223,2406,2619,2747,3185,3557,3643,3735,3719,3549,3474,3215,3134,2916,2779,2720,2733,2744,2758,2779,2728,2702,2590,2467,2426,2327,2298,2244,2231,2217,2218,2228,2233,2244,2250,2255,2258,2257,2254,2244,2223,2217,2208,2213,2407,2920,3082,3552,3681,3931,3955,3957,3823,3605,3444,3221,3054,3009,2975,2897,2872,2868,2859,2847,2836,2758,2725,2597,2555,2421,2316,2286,2212,2195,2191,2194,2206,2213,2216,2218,2211,2212,2198,2196,2173,2148,2132,2191,2241,2535,2669,3163,3327,3740,3826,3928,3902,3728,3649,3399,3313,3239,3040,2912,2860,2826,2829,2829,2833,2796,2748,2641,2508,2470,2350,2247,2234,2202,2203,2202,2210,2219,2227,2227,2239,2240,2235,2230,2222,2207,2197,2186,2357,2816,3271,3735,3794,3786,3739,3502,3413,3043,2832,2787,2701,2726,2790,2814,2781,2678,2593,2462,2418,2318,2288,2236,2220,2214,2249,2280,2295,2298,2286,2274,2256,2340,2403,2494,2737,3518,3655,3925,3963,3965,3841,3534,3203,2973,2931,2865,2856,2846,2788,2751,2634,2585,2453,2275,2257,2206,2195,2192,2205,2206,2225,2238,2237,2243,2237,2240,2218,2188,2184,2182,2209,2387,2926,3101,3266,3705,3936,3960,3853,3788,3540,3361,3124,3052,2906,2845,2807,2823,2824,2827,2811,2746,2707,2586,2536,2409,2365,2274,2229,2187,2186,2194,2220,2233,2250,2254,2252,2246,2221,2218,2186,2185,2203,2245,2468,2592,3042,3649,3839,3904,3731,3648,3551,3258,3068,2849,2737,2717,2716,2750,2843,2819,2731,2682,2542,2489,2446,2318,2258,2192,2187,2197,2209,2246,2264,2273,2270,2272,2247,2243,2231,2251,2405,2764,3250,3690,3969,3960,3813,3738,3482,3386,3063,3004,2867,2812,2803,2819,2811,2799,2709,2587,2536,2493,2358,2212,2166,2164,2156,2174,2184,2186,2207,2214,2218,2206,2204,2175,2171,2160,2191,2226,2291,2476,3077,3410,3790,3934,3917,3882,3664,3393,3298,3214,2932,2807,2788,2761,2771,2773,2799,2777,2763,2629,2488,2445,2396,2284,2198,2184,2165,2151,2165,2223,2242,2238,2227,2213,2190,2187,2247,2496,2617,3089,3252,3413,3685,3883,3844,3612,3326,3050,2859,2762,2853,2827,2808,2774,2655,2385,2224,2233,2264,2282,2276,2260,2248,2248,2329,2578,2708,3160,3606,3714,3804,3888,3601,3336,3257,3034,2980,2826,2787,2797,2794,2754,2658,2623,2579,2454,2411,2309,2232,2219,2188,2186,2199,2201,2219,2219,2229,2227,2223,2202,2173,2165,2242,2626,2774,3559,3891,3851,3569,3318,3243,3168,2994,2871,2847,2823,2794,2772,2758,2704,2600,2481,2324,2193,2163,2156,2171,2197,2201,2200,2193,2169,2157,2159,2256,2321,2414,2796,2956,3434,3577,3692,3888,3831,3775,3533,3188,3116,3043,2891,2851,2802,2795,2813,2817,2797,2723,2600,2473,2334,2268,2238,2253,2269,2273,2253,2188,2210,2487,2891,3040,3470,3723,3757,3759,3641,3331,3245,3022,2852,2816,2740,2734,2743,2745,2740,2723,2649,2575,2447,2409,2298,2208,2185,2179,2190,2192,2213,2215,2222,2229,2230,2231,2221,2213,2196,2186,2180,2590,3537,3869,3957,3610,3301,3110,2942,2875,2839,2808,2747,2639,2510,2342,2304,2224,2190,2165,2165,2170,2185,2186,2197,2194,2197,2193,2189,2189,2179,2177,2155,2146,2140,2202,2258,2693,3191,3357,3509,3857,3916,3949,3870,3572,3488,3236,3044,2992,2953,2870,2855,2861,2860,2845,2775,2654,2611,2520,2361,2277,2236,2223,2222,2238,2249,2255,2254,2261,2256,2245,2173,2213,2426,2979,3459,3797,3852,3849,3796,3465,3191,3029,2806,2734,2737,2744,2757,2773,2743,2687,2564,2471,2341,2236,2174,2148,2154,2157,2184,2202,2203,2212,2206,2187,2155,2157,2363,2757,3277,3723,3983,4008,3931,3875,3813,3507,3267,3084,2959,2895,2885,2870,2807,2698,2365,2247,2171,2131,2121,2134,2138,2151,2154,2161,2161,2159,2158,2157,2150,2138,2132,2114,2103,2136,2178,2441,3262,3832,4008,3869,3563,3297,3074,2905,2873,2874,2911,2904,2887,2798,2754,2606,2553,2410,2366,2243,2201,2195,2193,2198,2229,2241,2242,2238,2205,2194,2179,2153,2213,2272,2730,3398,3547,3864,3728,3447,3058,2789,2703,2719,2734,2779,2770,2651,2508,2313,2201,2133,2103,2104,2121,2168,2191,2192,2172,2132,2155,2461,2940,3458,3854,3941,4016,3935,3746,3315,2908,2855,2796,2639,2384,2251,2134,2094,2084,2100,2124,2139,2150,2152,2148,2131,2123,2112,2086,2175,2248,2614,2962,3481,3939,3974,3726,3454,3178,2965,2846,2827,2817,2830,2844,2876,2857,2768,2573,2418,2287,2254,2182,2158,2153,2155,2186,2194,2205,2227,2226,2220,2185,2181,2465,2898,3545,3770,3885,3743,3660,3566,3259,2967,2889,2713,2644,2668,2728,2742,2747,2674,2547,2396,2214,2180,2101,2073,2072,2078,2111,2160,2174,2212,2222,2216,2187,2190,2287,2892,3401,3893,3974,3940,3887,3668,3581,3298,3209,2981,2925,2784,2764,2774,2783,2742,2503,2355,2308,2266,2164,2108,2099,2100,2149,2163,2157,2221,2564,2702,3175,3337,3796,3846,3810,3751,3503,3127,3039,2835,2707,2686,2669,2673,2692,2700,2662,2632,2519,2336,2290,2181,2098,2088,2086,2087,2113,2122,2132,2137,2140,2204,2639,3092,3711,3786,3556,3276,3088,2854,2633,2681,2614,2403,2269,2128,2067,2059,2052,2087,2101,2132,2153,2155,2144,2256,2688,3009,3498,3830,3879,3848,3519,3413,3107,2858,2802,2694,2707,2729,2795,2796,2791,2721,2598,2548,2403,2252,2223,2175,2173,2177,2204,2210,2227,2226,2211,2210,2291,2540,3116,3276,3664,3824,3777,3550,3237,2925,2618,2587,2705,2745,2682,2559,2507,2360,2200,2170,2108,2112,2176,2207,2216,2197,2197,2213,2398,2640,2790,3306,3855,3932,3986,3755,3673,3398,3131,3059,2891,2801,2801,2801,2821,2819,2794,2768,2617,2573,2419,2288,2246,2142,2116,2110,2114,2122,2146,2160,2172,2179,2175,2164,2134,2120,2637,3159,3638,3936,3977,3760,3487,3104,2898,2761,2783,2791,2786,2713,2594,2541,2495,2345,2232,2198,2121,2112,2109,2134,2166,2172,2184,2199,2204,2199,2167,2159,2131,2202,2459,2920,3586,3714,3939,3943,3924,3718,3308,3203,2917,2695,2710,2791,2836,2845,2775,2731,2524,2371,2243,2217,2188,2147,2137,2151,2187,2214,2235,2228,2203,2283,2353,2440,2852,3511,3649,3933,3883,3815,3560,3256,3164,3071,2866,2815,2740,2773,2791,2801,2751,2715,2679,2530,2326,2286,2178,2123,2107,2135,2177,2198,2213,2199,2197,2162,2148,2224,2489,3141,3625,3936,3986,3932,3738,3472,3286,3054,2987,2940,2833,2811,2809,2828,2823,2766,2611,2468,2416,2253,2180,2151,2132,2144,2155,2176,2180,2185,2177,2137,2110,2091,2133,2358,3146,3864,3979,3612,3227,2994,2844,2792,2802,2831,2846,2830,2817,2717,2679,2486,2348,2315,2211,2175,2177,2179,2207,2224,2246,2246,2243,2208,2176,2249,2314,2626,3419,3770,3871,3840,3633,3531,3215,3008,2765,2715,2634,2714,2777,2761,2738,2613,2467,2319,2152,2138,2160,2187,2229,2251,2243,2240,2207,2194,2307,2626,2773,3443,3837,3917,3988,3764,3601,3324,3241,3154,2967,2834,2817,2822,2807,2682,2489,2341,2199,2147,2132,2138,2152,2179,2195,2197,2168,2139,2119,2228,2702,3226,3683,3910,3434,3082,2851,2780,2769,2795,2800,2788,2729,2509,2316,2177,2127,2113,2113,2139,2143,2174,2193,2185,2133,2103,2158,2400,2534,3029,3671,3791,3951,3780,3512,3198,2779,2772,2853,2789,2661,2455,2323,2253,2183,2160,2169,2191,2221,2236,2229,2225,2193,2190,2390,2776,3447,3836,3977,3967,3925,3725,3453,3096,2911,2795,2788,2816,2816,2794,2770,2619,2472,2326,2218,2135,2116,2130,2158,2178,2179,2187,2184,2161,2117,2651,3652,3952,3940,3752,3406,3153,2931,2870,2838,2845,2822,2749,2709,2572,2469,2319,2279,2154,2108,2099,2110,2127,2137,2154,2162,2174,2171,2171,2145,2089,2268,3175,3776,3980,3845,3772,3409,3132,2877,2799,2822,2867,2864,2851,2758,2620,2566,2377,2340,2249,2196,2195,2205,2222,2231,2249,2243,2240,2199,2160,2156,2211,2271,2349,3049,3913,3621,3109,2857,2686,2681,2734,2781,2779,2712,2633,2486,2223,2150,2122,2125,2132,2158,2199,2216,2228,2217,2209,2161,2175,2514,2661,3178,3778,3882,4008,3898,3838,3521,3182,2999,2955,2920,2860,2855,2793,2683,2487,2343,2201,2121,2124,2126,2145,2159,2166,2166,2157,2106,2116,2288,2836,3017,3665,3942,3947,3762,3412,3147,2902,2815,2803,2820,2828,2826,2770,2739,2610,2372,2330,2230,2158,2191,2244,2245,2221,2186,2156,2159,2332,2689,2845,3010,3501,3636,3749,3905,3723,3327,3024,2748,2672,2714,2777,2776,2686,2645,2598,2449,2273,2238,2169,2139,2139,2149,2183,2193,2229,2220,2179,2367,2751,3429,3831,4009,3819,3408,2989,2888,2847,2842,2792,2735,2611,2418,2288,2198,2137,2128,2139,2153,2160,2172,2179,2181,2177,2162,2141,2105,2226,2715,3246,3703,3970,3962,3797,3551,3455,3187,3105,3035,2842,2786,2785,2795,2725,2511,2328,2224,2131,2153,2187,2205,2206,2189,2163,2119,2120,2320,2707,2875,3393,16
2170,2152,2106,2121,2305,2403,2967,3129,3632,3748,3745,3608,3405,3338,3266,3091,2963,2950,2963,2998,3010,3008,2999,2976,2844,2714,2662,2477,2364,2328,2251,2191,2180,2173,2170,2177,2187,2185,2187,2168,2140,2135,2121,2094,2055,2047,2038,2122,2520,2971,3134,3278,3412,3680,3615,3563,3333,3084,3002,2781,2753,2850,2889,3027,3061,3099,3155,3168,3163,3149,3137,3122,3111,3082,3074,3013,2992,2894,2794,2725,2625,2467,2386,2337,2305,2294,2401,2460,2720,3011,3101,3281,3278,3206,2993,2928,2713,2626,2615,2665,2769,2797,2868,2872,2823,2799,2691,2655,2527,2376,2348,2316,2247,2197,2190,2168,2170,2167,2173,2176,2181,2179,2219,2264,2586,2697,3083,3201,3479,3566,3555,3526,3375,3195,3018,2901,2846,2861,2870,2887,2917,2923,2891,2872,2810,2640,2590,2546,2409,2329,2236,2126,2087,2082,2077,2084,2090,2098,2096,2098,2111,2133,2322,2418,2819,2971,3551,3801,3834,3853,3783,3611,3536,3314,3239,3176,3111,2980,2920,2921,2944,2944,2940,2920,2844,2714,2670,2616,2467,2316,2274,2190,2085,1999,1978,1969,1972,1967,1969,1962,1952,1926,1917,1906,1896,1886,1934,1982,2404,2886,3050,3213,3569,3645,3710,3695,3546,3246,3171,2954,2824,2800,2870,2960,3001,2951,2839,2736,2693,2578,2534,2430,2395,2288,2250,2246,2230,2223,2213,2185,2195,2217,2263,2493,2603,2979,3112,3418,3488,3480,3217,2977,2783,2732,2664,2661,2691,2748,2834,2849,2862,2843,2763,2721,2588,2492,2347,2306,2187,2103,2078,2036,2017,2032,2053,2066,2091,2114,2121,2146,2307,2402,2783,2941,3419,3786,3860,3956,3940,3916,3684,3442,3363,3142,2962,2944,2928,2939,2963,2970,2967,2934,2904,2699,2485,2326,2161,2133,2057,2024,2015,2017,2017,2035,2049,2048,2053,2046,2022,2011,2031,2201,2306,2427,2906,3430,3582,3891,3949,3944,3894,3773,3616,3360,3272,3069,3015,2925,2950,2959,2991,2958,2811,2706,2524,2465,2276,2222,2063,1984,1904,1909,1935,1951,1978,1991,2014,2023,2030,2028,2028,2063,2109,2167,2354,2619,3119,3286,3706,3906,3927,3846,3788,3708,3525,3206,2891,2809,2639,2616,2629,2754,2823,2825,2764,2734,2556,2354,2215,2179,2087,2071,2039,2040,2046,2055,2068,2079,2151,2209,2279,2481,2610,2747,3210,3699,3841,3830,3749,3692,3451,3365,3096,3025,2957,2819,2843,2913,2940,2954,2965,2929,2777,2624,2473,2420,2283,2237,2095,2034,2018,2013,2017,2033,2051,2154,2677,3174,3747,3835,3965,3878,3740,3345,3128,2844,2647,2613,2561,2594,2616,2609,2560,2494,2355,2251,2089,1881,1831,1716,1633,1620,1604,1596,1620,1638,1652,1724,1793,1818,1885,1890,1935,2118,2216,2642,2806,3462,3750,3790,3791,3753,3710,3522,3458,3253,3103,3026,3034,3077,3096,3108,3045,3018,2900,2861,2718,2535,2452,2350,2263,2249,2241,2242,2248,2271,2661,3213,3404,3426,3145,2966,2781,2702,2715,2751,2765,2772,2767,2704,2677,2566,2529,2375,2276,2254,2175,2141,2138,2130,2126,2139,2142,2162,2176,2174,2164,2174,2328,2646,3038,3432,3497,3476,3351,3119,3060,3009,2875,2805,2794,2813,2848,2905,2921,2929,2922,2857,2830,2727,2655,2559,2434,2379,2370,2387,2407,2422,2438,2437,2440,2430,2409,2404,2378,2359,2389,2568,2899,3026,3160,3499,3636,3434,3364,3102,2901,2831,2822,2836,2848,2908,2947,2940,2899,2849,2753,2617,2523,2416,2392,2349,2334,2326,2334,2363,2387,2400,2404,2394,2351,2308,2354,2578,3060,3188,3311,3554,3595,3604,3536,3356,3292,3219,2952,2804,2767,2726,2760,2788,2866,2905,2918,2905,2841,2807,2776,2669,2568,2534,2506,2431,2387,2375,2365,2388,2396,2444,2485,2494,2510,2583,2633,2694,2969,3333,3463,3789,4058,3965,3708,3547,3438,3324,3156,2943,2684,2439,2309,2243,2218,2197,2174,2254,2310,2550,2650,2962,3234,3258,3264,3203,3054,2998,2938,2768,2627,2564,2526,2556,2569,2605,2607,2589,2488,2452,2417,2294,2170,2129,2094,1993,1872,1852,1849,1858,1883,1913,1923,1925,1924,1979,2258,2610,2742,3092,3179,3243,3315,3298,3270,3119,2925,2857,2684,2636,2555,2569,2587,2671,2694,2743,2721,2676,2583,2551,2447,2416,2322,2296,2227,2181,2170,2164,2153,2159,2175,2192,2210,2209,2226,2597,3122,3537,3625,3518,3462,3272,3204,3016,2846,2824,2811,2819,2873,2889,2905,2920,2884,2859,2832,2733,2696,2659,2546,2441,2411,2327,2229,2207,2207,2213,2215,2215,2209,2217,2311,2734,3322,3388,2901,2700,2729,2788,2826,2800,2730,2698,2562,2458,2335,2307,2220,2182,2173,2168,2157,2158,2161,2220,2587,2701,3068,3187,3458,3571,3454,3107,2950,2832,2818,2851,2876,2864,2829,2746,2643,2607,2503,2408,2330,2269,2230,2219,2202,2197,2199,2202,2208,2211,2215,2257,2351,2617,3001,3141,3605,3753,3696,3650,3469,3207,3149,3012,2961,2938,2940,2964,2969,2964,2912,2782,2705,2584,2466,2367,2284,2263,2211,2183,2175,2171,2161,2157,2158,2156,2157,2154,2147,2152,2161,2359,2690,3122,3514,3607,3682,3770,3517,3062,2909,2908,2932,2942,2901,2818,2779,2612,2442,2405,2300,2220,2161,2122,2116,2122,2127,2129,2132,2124,2107,2116,2238,2528,2940,3089,3227,3561,3703,3693,3575,3513,3451,3236,2987,2884,2921,2965,2952,2940,2853,2739,2693,2520,2483,2443,2344,2248,2231,2205,2197,2203,2217,2227,2325,2547,2655,2768,3153,3272,3384,3603,3652,3628,3493,3280,3128,2861,2730,2778,2829,2841,2814,2695,2486,2368,2262,2235,2141,2095,2073,2076,2075,2089,2099,2105,2145,2176,2385,2487,3048,3488,3602,3869,3742,3542,3469,3173,3004,2918,2895,2923,2826,2708,2666,2519,2291,2246,2146,2051,2012,2002,2014,2026,2036,2047,2055,2060,2052,2058,2086,2270,2643,2797,3601,3883,3940,3807,3512,3273,3091,2967,2955,2978,2982,2922,2888,2774,2622,2574,2517,2370,2197,2096,2035,1998,1993,2007,2007,2024,2025,2025,2012,2012,1992,2069,2338,2941,3427,3769,3876,3869,3839,3785,3586,3335,3257,3174,2989,2885,2882,2926,2970,2982,2956,2908,2879,2751,2610,2556,2417,2256,2220,2127,2091,2097,2121,2124,2132,2141,2146,2143,2159,2351,2677,2820,3405,3523,3774,3804,3763,3584,3503,3244,2926,2822,2749,2789,2852,2823,2736,2563,2317,2259,2223,2222,2239,2300,2468,2985,3595,3927,4066,4066,4066,3985,3740,3654,3370,3271,3185,2959,2814,2748,2671,2605,2573,2477,2311,2178,2065,1947,1891,1885,1873,1886,1926,1942,1973,1987,1992,2019,2055,2277,2493,2940,3100,3562,3907,3846,3584,3095,2971,2844,2536,2392,2281,2297,2336,2324,2303,2283,2182,2062,2012,1882,1733,1700,1637,1620,1615,1621,1655,1676,1691,1751,1795,1813,1850,1992,2289,2431,2915,3090,3531,3791,3845,3744,3678,3447,3107,3033,2976,2866,2869,2883,2958,2975,2993,2985,2901,2865,2720,2671,2512,2464,2412,2287,2150,2121,2115,2128,2140,2153,2281,2685,3279,3668,3764,3907,3915,3748,3668,3394,3294,2944,2790,2762,2761,2814,2838,2822,2749,2524,2277,2116,2081,1989,1963,1957,1969,1996,2002,2023,2044,2069,2335,2896,3549,3869,3984,3864,3641,3282,3059,3000,2900,2883,2881,2890,2903,2897,2800,2758,2621,2408,2254,2213,2095,2068,1996,1983,1952,1961,1994,2016,2025,2029,2015,2115,2397,3352,3746,3956,3888,3608,3343,3263,3052,2934,2913,2909,2934,2934,2889,2866,2752,2509,2407,2266,2154,2050,2006,2001,1990,1995,2001,2019,2037,2040,2048,2043,2052,2260,2614,2758,3229,3743,3764,3527,3446,3098,3020,2845,2776,2778,2889,2909,2838,2723,2532,2484,2347,2157,2108,2114,2208,2513,3035,3434,3541,3762,3670,3382,3040,2793,2724,2723,2759,2778,2793,2817,2751,2716,2587,2433,2381,2185,2069,1965,1932,1934,1959,1972,2005,2030,2048,2130,2368,2486,3268,3693,3798,3971,3985,3977,3865,3660,3580,3334,3259,3038,2971,2996,2986,2970,2843,2689,2630,2450,2390,2228,2180,2064,1991,1961,1942,1941,1949,1953,1970,1989,1989,2049,3385,3938,3803,3563,3291,2981,2830,2818,2851,2711,2366,2213,2048,1962,1900,1889,1904,1912,1921,1949,1957,1965,1979,1973,1971,2030,2085,2525,3029,3525,3847,3947,3804,3564,3471,3187,3025,2862,2836,2826,2908,2951,2905,2874,2700,2593,2428,2223,2069,2001,1992,1984,1993,2052,2068,2137,2197,2430,2526,2643,3062,3720,3892,3877,3834,3632,3254,3154,3066,2850,2748,2754,2824,2841,2858,2772,2731,2584,2409,2353,2185,1924,1878,1878,1912,1924,1969,1982,2134,2429,3206,3761,3955,3971,3860,3728,3481,3150,2977,2896,2900,2943,2908,2812,2612,2443,2389,2189,2072,2043,1961,1939,1941,1962,1998,2005,2024,2025,2028,2024,2096,2154,2609,3125,3299,3833,3965,3733,3482,3225,3156,2997,2931,2937,2957,2943,2925,2895,2782,2622,2567,2391,2337,2181,2093,1996,1950,1910,1912,1922,1942,1969,1972,1989,1976,1957,1971,2114,2467,2977,3507,3936,4004,3898,3836,3501,3408,3309,2994,2879,2860,2872,2911,2925,2917,2782,2732,2579,2407,2356,2300,2160,2116,2084,2002,1967,1959,1974,2009,2016,2059,2080,2083,2100,2328,2701,2861,3024,3506,3834,3901,3923,3742,3662,3364,2863,2788,2818,2848,2926,2949,2956,2913,2801,2699,2466,2298,2159,2117,2007,1980,1980,2016,2050,2103,2332,2432,2557,3015,3643,3934,4017,3927,3725,3640,3247,2997,2939,2832,2843,2862,2875,2909,2858,2697,2642,2480,2260,2207,2165,2048,1969,1969,1981,2053,2080,2142,2166,2235,2282,2313,2590,3014,3176,3750,4051,4063,4060,3987,3943,3748,3666,3389,3308,3089,3065,3077,3139,3119,3007,2787,2350,2228,1881,1532,1481,1481,1481,1481,1481,1481,1482,1484,1486,1491,1634,1975,2141,2723,3496,3642,3753,3931,3872,3818,3562,3466,3359,2985,2788,2781,2794,2868,2914,2903,2776,2616,2442,2379,2215,2158,2115,1970,1907,1900,1892,1903,1932,1950,1962,2009,2037,2047,2050,2045,2113,2355,2486,2630,3330,3760,3989,4022,3937,3878,3635,3423,3007,2821,2795,2801,2964,3011,2958,2841,2787,2554,2384,2278,2118,2049,2041,2032,2041,2086,2140,2305,2403,2793,3450,3594,3717,3969,4020,3874,3622,3519,3065,2801,2670,2715,2740,2831,2830,2810,2710,2660,2612,2375,2193,2141,1996,1835,1825,1856,1866,26
2692,2680,2672,2668,2666,2655,2649,2646,2646,2640,2640,2638,2637,2631,2632,2627,2623,2627,2646,2671,2706,2726,2774,2788,2805,2807,2795,2783,2767,2759,2743,2736,2723,2706,2702,2690,2681,2666,2656,2652,2648,2645,2644,2638,2638,2634,2635,2631,2630,2629,2626,2623,2625,2623,2638,2645,2690,2706,2766,2822,2807,2778,2751,2738,2735,2734,2735,2734,2735,2727,2720,2713,2711,2704,2700,2696,2694,2694,2694,2693,2693,2689,2688,2687,2690,2708,2719,2745,2761,2806,2820,2842,2843,2827,2801,2794,2786,2763,2756,2737,2727,2715,2702,2699,2687,2659,2642,2632,2628,2621,2618,2612,2608,2604,2603,2599,2597,2596,2609,2640,2655,2669,2715,2727,2739,2754,2750,2746,2743,2726,2711,2707,2694,2685,2682,2681,2675,2668,2668,2660,2654,2652,2646,2645,2643,2643,2639,2641,2640,2638,2636,2632,2628,2622,2619,2627,2636,2673,2689,2738,2752,2777,2781,2776,2772,2754,2741,2734,2720,2714,2712,2698,2696,2686,2674,2672,2660,2657,2643,2640,2625,2623,2619,2611,2604,2605,2603,2605,2604,2608,2607,2613,2613,2619,2620,2626,2649,2689,2702,2720,2757,2775,2773,2772,2755,2750,2726,2705,2697,2693,2674,2671,2663,2659,2659,2653,2649,2644,2642,2632,2624,2620,2620,2616,2618,2616,2620,2620,2622,2621,2623,2625,2624,2634,2656,2671,2682,2729,2741,2775,2779,2784,2780,2771,2763,2753,2746,2738,2732,2731,2727,2725,2728,2723,2719,2710,2702,2683,2682,2667,2667,2657,2660,2657,2661,2660,2664,2661,2663,2658,2662,2686,2693,2721,2751,2791,2804,2807,2801,2792,2772,2770,2760,2750,2742,2736,2730,2730,2724,2727,2719,2715,2706,2685,2664,2664,2647,2647,2634,2636,2629,2632,2631,2629,2628,2639,2676,2686,2733,2743,2770,2767,2761,2721,2706,2691,2689,2692,2693,2698,2696,2690,2690,2675,2674,2655,2645,2632,2612,2612,2600,2603,2604,2657,2705,2741,2796,2807,2807,2809,2802,2802,2780,2764,2755,2743,2726,2727,2721,2709,2689,2665,2627,2619,2606,2599,2602,2595,2599,2602,2601,2610,2635,2682,2693,2711,2741,2750,2749,2748,2724,2720,2706,2672,2654,2643,2633,2626,2618,2622,2612,2612,2609,2602,2608,2606,2614,2618,2633,2641,2643,2653,2655,2668,2704,2712,2730,2764,2787,2785,2789,2774,2764,2757,2748,2756,2763,2781,2784,2789,2779,2781,2768,2763,2755,2752,2746,2746,2756,2764,2771,2773,2782,2809,2835,2852,2874,2889,2883,2858,2802,2785,2766,2763,2756,2746,2736,2727,2707,2698,2682,2668,2664,2650,2651,2639,2644,2644,2674,2704,2740,2751,2734,2714,2700,2676,2662,2643,2631,2629,2616,2609,2613,2608,2611,2606,2601,2595,2607,2619,2641,2642,2650,2645,2633,2639,2640,2671,2701,2718,2727,2723,2712,2701,2683,2671,2668,2644,2627,2617,2614,2592,2581,2572,2571,2554,2543,2535,2535,2518,2518,2503,2504,2496,2491,2496,2499,2508,2511,2545,2580,2596,2604,2632,2633,2639,2634,2629,2622,2608,2592,2596,2608,2610,2616,2620,2619,2624,2625,2622,2625,2621,2624,2620,2623,2624,2632,2656,2671,2710,2728,2761,2771,2777,2775,2758,2758,2739,2728,2721,2708,2705,2700,2702,2694,2691,2685,2677,2667,2667,2663,2659,2664,2679,2728,2747,2757,2794,2800,2802,2776,2763,2755,2744,2736,2730,2724,2722,2718,2720,2713,2713,2707,2700,2685,2685,2678,2669,2663,2663,2658,2649,2648,2654,2664,2694,2710,2750,2774,2791,2784,2762,2746,2733,2714,2699,2695,2692,2689,2686,2675,2676,2666,2661,2657,2651,2648,2645,2665,2671,2684,2721,2766,2780,2770,2768,2760,2736,2731,2715,2708,2703,2704,2701,2704,2700,2701,2690,2689,2675,2673,2658,2651,2641,2638,2635,2640,2656,2668,2678,2719,2762,2767,2765,2749,2740,2719,2710,2694,2688,2682,2681,2683,2684,2689,2689,2689,2686,2678,2673,2668,2660,2657,2657,2655,2664,2727,2765,2776,2765,2745,2727,2718,2715,2698,2693,2691,2691,2689,2686,2678,2674,2671,2668,2666,2664,2666,2665,2664,2666,2681,2708,2721,2758,2794,2798,2796,2788,2757,2733,2728,2720,2709,2705,2705,2704,2703,2698,2684,2674,2668,2653,2646,2642,2640,2637,2649,2655,2690,2703,2744,2764,2775,2774,2756,2750,2726,2705,2685,2692,2703,2708,2706,2699,2697,2694,2684,2676,2677,2689,2697,2731,2767,2776,2792,2775,2749,2723,2698,2692,2692,2693,2692,2690,2687,2669,2653,2646,2642,2627,2619,2615,2613,2621,2629,2637,2690,2706,2742,2759,2759,2755,2742,2727,2723,2720,2715,2713,2715,2715,2714,2710,2707,2700,2695,2698,2702,2703,2714,2719,2750,2784,2796,2819,2822,2821,2809,2800,2772,2761,2735,2718,2697,2693,2679,2661,2648,2626,2618,2614,2599,2596,2584,2579,2577,2579,2591,2633,2661,2697,2717,2708,2694,2687,2684,2685,2682,2685,2683,2681,2679,2674,2668,2659,2650,2651,2647,2648,2656,2675,2687,2696,2737,2766,2773,2777,2769,2761,2757,2737,2734,2718,2711,2710,2709,2712,2708,2708,2699,2692,2683,2678,2673,2662,2655,2656,2654,2667,2677,2708,2755,2778,2779,2780,2767,2759,2745,2743,2730,2726,2723,2724,2713,2700,2698,2683,2675,2670,2669,2660,2656,2653,2649,2648,2644,2650,2650,2676,2684,2723,2733,2764,2766,2771,2767,2761,2753,2746,2745,2729,2718,2719,2713,2704,2698,2681,2670,2656,2649,2643,2645,2635,2637,2630,2628,2624,2624,2619,2626,2643,2657,2666,2694,2713,2750,2764,2773,2778,2769,2769,2762,2744,2725,2709,2710,2701,2703,2694,2688,2680,2664,2663,2649,2642,2635,2625,2627,2619,2622,2615,2612,2615,2613,2618,2634,2675,2686,2732,2740,2765,2763,2755,2739,2728,2720,2711,2704,2701,2697,2699,2691,2688,2681,2666,2659,2652,2651,2640,2631,2634,2625,2625,2619,2621,2614,2616,2609,2607,2612,2612,2639,2677,2697,2739,2775,2775,2782,2775,2768,2760,2741,2739,2730,2719,2711,2704,2698,2697,2687,2680,2667,2660,2653,2649,2643,2645,2636,2627,2630,2621,2621,2620,2614,2612,2615,2610,2614,2628,2632,2677,2689,2711,2754,2792,2780,2763,2764,2744,2733,2725,2717,2710,2712,2706,2694,2697,2683,2666,2658,2645,2642,2631,2634,2626,2630,2622,2627,2620,2625,2624,2618,2623,2618,2623,2617,2621,2622,2633,2659,2710,2744,2770,2785,2784,2785,2761,2762,2746,2740,2731,2727,2717,2719,2713,2711,2704,2705,2688,2679,2671,2671,2658,2646,2643,2644,2641,2636,2639,2635,2638,2636,2631,2633,2626,2630,2624,2633,2651,2668,2678,2731,2769,2786,2794,2789,2774,2757,2740,2732,2725,2725,2714,2710,2702,2702,2686,2679,2669,2655,2657,2647,2642,2645,2641,2639,2644,2638,2643,2637,2641,2633,2637,2630,2633,2629,2629,2631,2633,2677,2732,2765,2796,2803,2787,2779,2771,2761,2750,2731,2716,2716,2703,2696,2688,2687,2672,2672,2659,2660,2654,2652,2648,2648,2644,2644,2641,2642,2636,2638,2634,2635,2630,2625,2629,2623,2625,2623,2642,2650,2666,2735,2784,2801,2815,2810,2803,2801,2780,2757,2756,2738,2736,2723,2723,2713,2714,2702,2702,2690,2689,2675,2669,2664,2656,2657,2651,2652,2647,2647,2643,2642,2637,2636,2632,2631,2627,2629,2626,2639,2671,2703,2762,2794,2815,2807,2804,2781,2759,2756,2737,2725,2725,2717,2706,2706,2692,2690,2683,2668,2661,2656,2646,2644,2639,2640,2635,2631,2632,2630,2631,2626,2629,2625,2627,2635,2687,2708,2765,2814,2827,2822,2812,2795,2771,2753,2750,2735,2734,2725,2720,2710,2698,2682,2680,2665,2664,2652,2649,2643,2640,2634,2633,2631,2632,2629,2629,2626,2626,2624,2635,2642,2656,2703,2722,2778,2805,2821,2805,2787,2765,2761,2747,2737,2728,2723,2720,2719,2706,2692,2687,2673,2659,2656,2652,2645,2638,2637,2635,2634,2635,2633,2632,2631,2632,2628,2625,2627,2656,2704,2723,2774,2789,2807,2807,2795,2789,2771,2759,2745,2734,2725,2720,2714,2707,2693,2668,2653,2639,2634,2631,2630,2631,2630,2629,2628,2627,2625,2625,2629,2655,2669,2686,2740,2790,2801,2808,2808,2793,2788,2768,2754,2750,2737,2734,2731,2724,2713,2709,2691,2674,2669,2654,2639,2632,2629,2627,2627,2625,2625,2624,2623,2622,2620,2620,2632,2687,2746,2795,2806,2812,2811,2803,2797,2791,2776,2770,2755,2745,2731,2719,2719,2708,2691,2688,2669,2656,2651,2649,2636,2636,2628,2628,2623,2624,2620,2622,2619,2620,2618,2621,2617,2618,2618,2623,2648,2666,2680,2740,2804,2809,2814,2796,2787,2775,2759,2756,2749,2734,2733,2724,2709,2703,2688,2669,2666,2652,2639,2639,2633,2631,2630,2627,2628,2627,2628,2622,2623,2619,2615,2617,2667,2727,2744,2796,2802,2810,2805,2788,2776,2768,2758,2750,2740,2733,2727,2721,2715,2708,2700,2692,2689,2671,2669,2652,2644,2634,2631,2626,2628,2623,2620,2618,2618,2612,2608,2605,2601,2607,2650,2665,2730,2784,2801,2808,2814,2796,2779,2767,2753,2724,2709,2702,2683,2664,2662,2647,2636,2630,2625,2626,2623,2618,2617,2612,2612,2607,2606,2601,2603,2599,2600,2596,2608,2639,2702,2747,2801,2817,2828,2805,2778,2776,2752,2736,2719,2714,2703,2703,2692,2676,2668,2655,2651,2643,2643,2636,2630,2633,2627,2623,2623,2617,2618,2618,2657,2708,2771,2782,2813,2804,2788,2777,2759,2734,2734,2714,2702,2705,2695,2698,2691,2687,2671,2662,2657,2644,2646,2638,2638,2628,2631,2624,2626,2618,2622,2617,2620,2614,2617,2612,2632,2638,2706,2770,2782,2800,2815,2811,2801,2787,2773,2751,2730,2721,2706,2703,2690,2678,2673,2658,2654,2644,2639,2637,2628,2631,2625,2624,2615,2618,2622,2657,2667,2722,2783,2787,2798,2792,2791,2769,2748,2746,2728,2713,2705,2694,2695,2681,2673,2666,2652,2654,2647,2647,2642,2636,2637,2630,2625,2626,2652,2707,2727,2757,2769,2766,2758,2744,2736,2719,2714,2701,2698,2685,2677,2662,2652,2642,2636,2638,2632,2634,2629,2631,2629,2623,2634,2654,2669,2679,2728,2770,2769,2774,2761,2761,2755,2742,2742,2724,2714,2700,2694,2681,2674,2666,2648,2649,2637,2633,2628,2631,2626,2630,2625,2627,2623,2625,2624,2620,2633,2678,2687,2735,2763,2773,2764,2764,2750,2736,2728,2722,2718,2712,2711,2706,2704,2697,2689,2681,2680,2664,2651,2653,2648,2647,2640,2644,2638,2641,2639,2640,2637,2634,2634,2631,2646,2675,2692,2705,12
2365,2341,2341,2333,2357,2374,2575,2657,2930,3194,3301,3329,3310,3172,3053,2880,2737,2707,2675,2639,2644,2662,2687,2684,2668,2636,2594,2549,2478,2428,2411,2377,2371,2373,2370,2378,2388,2489,2670,3008,3092,3255,3276,3247,3111,3051,2879,2822,2698,2665,2627,2619,2643,2680,2683,2688,2652,2585,2563,2534,2466,2441,2405,2393,2360,2352,2357,2357,2372,2373,2397,2409,2510,2560,2624,2771,3008,3081,3136,3216,3076,2912,2854,2805,2675,2614,2606,2642,2674,2683,2674,2635,2613,2595,2525,2507,2483,2420,2401,2397,2389,2387,2391,2399,2417,2468,2499,2660,2890,2975,3052,3234,3262,3263,3196,3046,2892,2768,2702,2686,2713,2721,2746,2746,2734,2719,2670,2627,2564,2516,2478,2461,2455,2457,2461,2464,2468,2467,2470,2473,2528,2672,2744,2819,3071,3261,3299,3316,3280,3241,3093,3036,2886,2746,2724,2696,2694,2698,2713,2715,2702,2656,2592,2571,2508,2492,2449,2441,2420,2417,2413,2415,2415,2423,2424,2429,2432,2434,2433,2467,2584,2647,2718,3132,3282,3282,3251,3108,2993,2827,2783,2681,2636,2637,2662,2673,2645,2631,2611,2569,2547,2479,2460,2408,2396,2365,2362,2373,2391,2412,2440,2476,2507,2548,2737,2816,3073,3149,3317,3272,3230,3181,3004,2838,2791,2696,2677,2666,2670,2720,2731,2740,2711,2694,2674,2605,2538,2517,2500,2454,2428,2424,2422,2421,2425,2428,2439,2477,2505,2544,2728,2978,3063,3142,3302,3311,3243,3080,2902,2848,2756,2666,2638,2639,2667,2678,2703,2700,2666,2606,2582,2512,2471,2423,2394,2392,2394,2405,2414,2472,2612,2943,3280,3387,3370,3240,3183,2998,2838,2760,2677,2673,2680,2698,2703,2695,2686,2634,2613,2589,2517,2493,2435,2419,2388,2381,2376,2375,2386,2389,2403,2406,2432,2482,2643,2895,2988,3081,3339,3352,3324,3171,2984,2922,2866,2731,2659,2646,2642,2655,2666,2690,2695,2667,2649,2556,2440,2389,2364,2355,2359,2374,2378,2396,2399,2418,2532,2730,2997,3229,3281,3321,3162,2905,2846,2698,2626,2616,2616,2646,2706,2718,2700,2638,2560,2479,2369,2347,2335,2343,2350,2375,2476,2529,2762,3302,3284,3060,2863,2800,2662,2594,2592,2591,2634,2684,2699,2699,2644,2623,2539,2514,2440,2423,2379,2361,2359,2372,2383,2394,2508,2564,2811,3210,3407,3437,3442,3364,3182,3116,3045,2867,2815,2716,2694,2685,2711,2725,2733,2749,2718,2655,2490,2423,2372,2362,2368,2369,2386,2432,2507,2568,2634,2906,3004,3348,3433,3346,3295,3229,3029,2748,2654,2650,2660,2697,2703,2676,2611,2589,2558,2482,2411,2396,2354,2350,2336,2339,2342,2351,2366,2431,2581,2839,2933,3277,3372,3291,3242,3039,2972,2774,2726,2679,2603,2608,2619,2672,2681,2685,2641,2540,2486,2414,2378,2348,2333,2337,2351,2362,2376,2449,2617,2784,3072,3331,3300,3249,3196,2985,2785,2724,2606,2562,2570,2577,2635,2692,2690,2640,2621,2533,2452,2423,2405,2349,2342,2318,2320,2321,2341,2391,2872,3175,3393,3422,3404,3359,3101,2829,2778,2656,2614,2652,2663,2703,2690,2669,2653,2569,2486,2454,2388,2365,2321,2319,2324,2333,2354,2443,2630,2925,3226,3444,3451,3430,3294,3077,3010,2808,2759,2709,2612,2629,2679,2697,2679,2612,2497,2472,2391,2341,2324,2308,2306,2324,2337,2348,2432,2609,2699,2993,3278,3339,3390,3398,3262,3188,3119,2887,2822,2754,2618,2559,2564,2624,2675,2694,2699,2664,2599,2487,2455,2394,2373,2344,2335,2335,2351,2361,2405,2552,2619,2896,3184,3374,3380,3351,3170,2946,2866,2800,2627,2593,2539,2546,2590,2676,2692,2690,2683,2662,2592,2476,2445,2360,2331,2321,2316,2325,2353,2499,2737,3056,3156,3255,3433,3436,3280,3067,2847,2790,2651,2607,2649,2670,2681,2708,2679,2664,2580,2494,2406,2349,2304,2312,2334,2379,2418,2463,2693,3368,3466,3328,3115,2903,2836,2692,2636,2617,2620,2656,2674,2694,2659,2643,2614,2533,2439,2417,2347,2308,2297,2296,2290,2297,2296,2316,2340,2364,2392,2645,2950,3051,3324,3428,3426,3396,3241,2944,2805,2647,2617,2566,2593,2605,2627,2666,2673,2659,2647,2571,2484,2449,2423,2342,2326,2281,2271,2275,2284,2312,2376,2548,3099,3296,3331,3303,3082,3012,2798,2642,2583,2567,2625,2646,2711,2720,2704,2638,2578,2486,2394,2380,2335,2311,2307,2309,2467,2627,2929,3197,3261,3318,3302,3264,3089,3013,2791,2720,2661,2562,2483,2485,2514,2585,2630,2638,2617,2603,2532,2458,2417,2369,2370,2400,2608,2999,3334,3555,3591,3567,3527,3340,3271,3060,3001,2857,2790,2781,2816,2811,2758,2668,2570,2457,2416,2397,2369,2360,2358,2463,2675,2764,3062,3234,3295,3374,3286,3234,3035,2777,2651,2595,2631,2669,2615,2543,2435,2370,2323,2313,2310,2318,2330,2343,2360,2488,2553,2632,2905,3171,3233,3281,3298,3172,3106,3039,2824,2612,2584,2549,2589,2608,2632,2679,2687,2669,2654,2552,2465,2415,2362,2339,2323,2328,2361,2476,2699,2985,3239,3345,3343,3322,3183,3048,2843,2688,2653,2605,2614,2665,2684,2720,2693,2674,2595,2509,2480,2455,2378,2347,2342,2336,2338,2369,2492,2639,2729,3034,3298,3355,3403,3290,3231,3164,2951,2768,2682,2652,2608,2607,2632,2664,2669,2670,2648,2562,2535,2450,2352,2332,2316,2282,2271,2270,2289,2307,2429,2666,2764,3081,3258,3391,3375,3239,2965,2898,2684,2604,2591,2631,2651,2633,2578,2475,2400,2322,2308,2280,2273,2277,2296,2309,2412,2909,3236,3303,3147,3082,3010,2795,2618,2575,2498,2501,2529,2546,2591,2595,2586,2529,2428,2361,2312,2282,2280,2281,2297,2340,2473,2718,3190,3332,3254,3134,3063,2991,2706,2552,2520,2475,2533,2602,2619,2653,2637,2570,2512,2462,2453,2433,2429,2437,2471,2503,2665,2746,3032,3135,3228,3433,3462,3435,3390,3201,3125,2913,2846,2672,2635,2636,2687,2718,2716,2656,2629,2523,2422,2389,2364,2301,2274,2267,2265,2260,2285,2307,2346,2537,2835,2941,3049,3293,3375,3291,3121,3052,2862,2635,2598,2616,2634,2646,2680,2679,2677,2628,2549,2516,2426,2396,2339,2323,2310,2309,2332,2339,2385,2442,2607,2688,2954,3051,3281,3354,3319,3078,2847,2781,2577,2531,2578,2604,2625,2680,2684,2670,2651,2577,2451,2416,2392,2329,2306,2300,2305,2324,2356,2365,2456,2572,2827,3302,3408,3204,3120,2867,2647,2598,2510,2509,2512,2577,2659,2701,2717,2669,2648,2618,2530,2443,2423,2399,2355,2343,2333,2330,2343,2352,2458,2593,2875,3273,3422,3380,3137,2923,2737,2695,2608,2626,2684,2688,2667,2609,2465,2368,2304,2291,2292,2308,2396,2444,2683,3112,3212,3434,3462,3388,3200,2788,2627,2624,2678,2659,2587,2498,2382,2317,2308,2293,2284,2294,2315,2362,2404,2451,2693,3001,3110,3202,3393,3387,3355,3302,3037,2845,2784,2659,2586,2587,2632,2653,2657,2622,2473,2324,2297,2360,2509,3015,3327,3337,3172,3095,2875,2615,2571,2633,2659,2701,2710,2663,2592,2483,2409,2393,2343,2318,2332,2366,2430,2613,2691,2980,3302,3340,3355,3218,2884,2709,2609,2572,2604,2616,2666,2672,2682,2655,2584,2563,2462,2390,2372,2363,2359,2365,2367,2367,2395,2505,2573,2832,2939,3306,3399,3385,3245,3041,2805,2764,2670,2647,2661,2694,2694,2663,2572,2488,2394,2346,2330,2327,2320,2332,2345,2376,2421,2462,2639,3127,3413,3394,3342,3150,3073,2867,2700,2665,2630,2578,2608,2617,2657,2624,2550,2442,2422,2360,2330,2314,2322,2340,2347,2379,2550,2794,3179,3354,3349,3265,3072,2853,2793,2642,2615,2581,2621,2644,2658,2697,2656,2592,2509,2488,2459,2402,2358,2354,2344,2340,2353,2354,2401,2437,2609,2887,3273,3414,3280,2910,2720,2598,2571,2633,2651,2708,2712,2688,2623,2533,2508,2477,2376,2342,2335,2350,2411,2507,2748,3073,3178,3280,3500,3445,3266,3189,2964,2891,2725,2683,2656,2619,2653,2672,2706,2714,2683,2611,2555,2445,2387,2369,2342,2329,2369,2577,2666,2971,3351,3461,3332,3265,3048,2971,2904,2686,2609,2602,2636,2675,2688,2685,2644,2619,2566,2484,2454,2367,2334,2323,2319,2367,2502,2846,2951,3226,3370,3372,3282,3220,3006,2854,2663,2559,2538,2568,2637,2674,2688,2653,2629,2607,2518,2438,2412,2394,2334,2312,2313,2325,2480,2554,2931,3323,3312,3267,3068,2843,2772,2574,2532,2535,2589,2673,2682,2685,2632,2580,2499,2424,2375,2345,2341,2336,2383,2417,2470,2799,3114,3212,3425,3425,3328,3128,2916,2739,2637,2618,2625,2669,2694,2662,2596,2485,2412,2366,2348,2334,2337,2356,2520,2773,2875,3174,3257,3386,3290,3233,2954,2766,2718,2608,2617,2656,2676,2642,2571,2463,2395,2376,2337,2321,2329,2364,2430,2619,2896,3173,3332,3311,3085,3013,2802,2647,2613,2590,2582,2651,2688,2690,2686,2645,2542,2485,2412,2349,2341,2327,2331,2348,2380,2512,2752,2848,3137,3216,3352,3355,3205,2998,2732,2606,2589,2685,2610,2448,2394,2375,2379,2405,2468,2645,3046,3362,3547,3566,3510,3267,3195,2991,2931,2878,2733,2698,2698,2717,2722,2716,2679,2586,2559,2478,2389,2372,2329,2323,2307,2293,2291,2295,2415,2644,2743,3138,3319,3253,3205,3147,2879,2656,2560,2529,2533,2539,2568,2578,2575,2533,2464,2384,2312,2292,2255,2243,2266,2290,2324,2452,2688,2782,3235,3326,3247,3126,2903,2694,2549,2495,2524,2573,2648,2682,2684,2575,2486,2407,2384,2331,2301,2294,2310,2410,2472,2546,2832,2936,3042,3298,3373,3345,3176,2951,2875,2805,2634,2597,2541,2544,2587,2681,2685,2650,2579,2491,2464,2391,2354,2319,2301,2300,2328,2361,2406,2634,2951,3064,3335,3392,3423,3396,3156,3078,2856,2787,2628,2589,2528,2539,2549,2581,2584,2586,2554,2436,2349,2280,2260,2247,2216,2210,2208,2213,2309,2440,2734,3087,3189,3422,3378,3328,3068,2932,2759,2642,2600,2637,2650,2670,2703,2681,2667,2592,2511,2483,2463,2396,2364,2361,2351,2393,2434,2636,2736,3076,3310,3587,3563,3379,3303,3047,2970,2764,2717,2672,2602,2592,2609,2640,2652,2655,2651,2585,2558,2485,2374,2362,2315,2305,2384,2434,2506,2777,3093,3178,3255,3346,3261,3197,3129,2805,2590,2541,2447,2442,2498,2604,2605,2559,2533,2434,2371,2337,2296,2318,2477,2556,2654,2983,3353,3402,3306,3007,2777,2600,2564,2505,2535,2552,6
2991,2912,2897,2876,2845,2811,2782,2721,2628,2542,2462,2449,2407,2395,2388,2387,2381,2379,2370,2356,2343,2318,2305,2304,2312,2367,2411,2645,2944,3049,3134,3320,3352,3340,3324,3163,3067,3016,2978,2862,2838,2807,2763,2739,2738,2727,2724,2678,2631,2543,2442,2387,2367,2309,2301,2277,2279,2272,2279,2294,2298,2292,2295,2275,2276,2294,2331,2518,2965,3319,3405,3482,3568,3477,3442,3303,3182,3066,2972,2891,2877,2854,2817,2802,2729,2708,2609,2581,2543,2454,2423,2365,2346,2320,2310,2305,2300,2302,2300,2296,2287,2282,2266,2253,2243,2324,2388,2655,2775,3138,3253,3481,3522,3524,3503,3386,3347,3135,3102,2993,2913,2850,2799,2726,2702,2602,2534,2470,2414,2371,2332,2310,2305,2312,2310,2315,2310,2313,2303,2298,2289,2276,2332,2372,2436,2931,3166,3273,3479,3469,3384,3230,3093,3048,2948,2867,2845,2813,2769,2741,2652,2611,2463,2376,2349,2334,2294,2285,2286,2285,2290,2286,2279,2258,2260,2351,2479,2561,2661,2979,3252,3352,3370,3351,3239,3199,3150,3027,2983,2884,2806,2791,2773,2745,2705,2692,2668,2593,2490,2460,2424,2398,2320,2278,2265,2262,2251,2253,2256,2268,2266,2269,2263,2240,2256,2324,2550,2661,3031,3158,3451,3572,3569,3557,3358,3173,3059,2960,2937,2842,2770,2691,2656,2553,2515,2418,2388,2324,2307,2279,2271,2264,2260,2258,2253,2237,2233,2206,2187,2214,2308,2683,2806,2927,3257,3395,3412,3168,3050,2978,2879,2807,2785,2733,2713,2648,2619,2592,2493,2397,2297,2277,2242,2234,2226,2224,2231,2232,2234,2224,2221,2200,2196,2196,2343,2420,2514,2855,3099,3380,3479,3477,3456,3342,3139,3047,2936,2867,2850,2813,2806,2742,2654,2621,2479,2388,2367,2315,2292,2291,2293,2288,2273,2272,2339,2534,2627,2729,3066,3334,3390,3430,3326,3281,3132,2925,2823,2806,2776,2727,2705,2682,2592,2486,2449,2328,2271,2257,2229,2228,2229,2229,2230,2229,2220,2393,2932,3297,3527,3492,3354,3166,3043,3008,2917,2822,2765,2684,2618,2503,2464,2361,2332,2264,2247,2203,2196,2195,2181,2175,2175,2277,2345,2429,2773,2904,3280,3540,3551,3545,3447,3297,3243,3094,2879,2808,2795,2753,2621,2511,2398,2365,2281,2231,2212,2201,2202,2207,2211,2217,2219,2214,2205,2192,2231,2335,2620,2741,3141,3262,3521,3560,3560,3523,3367,3125,3070,2911,2856,2846,2842,2831,2806,2785,2705,2667,2548,2504,2466,2358,2303,2251,2225,2222,2227,2236,2241,2230,2227,2220,2241,2392,2483,2848,2995,3141,3531,3621,3754,3751,3657,3431,3371,3167,3052,3020,2951,2931,2915,2894,2837,2783,2715,2550,2425,2388,2321,2243,2185,2176,2175,2175,2172,2166,2152,2142,2141,2197,2420,2803,3243,3580,3702,3606,3447,3390,3337,3185,3066,3031,3005,2935,2886,2867,2851,2775,2632,2594,2466,2429,2327,2265,2249,2242,2227,2229,2232,2237,2239,2239,2239,2233,2222,2198,2197,2300,2575,3386,3683,3672,3642,3431,3257,3210,3078,3047,2972,2938,2924,2917,2888,2815,2711,2666,2547,2437,2411,2382,2332,2318,2303,2291,2295,2289,2282,2263,2242,2230,2248,2377,2547,2890,3008,3321,3387,3477,3362,3306,3254,3033,2901,2873,2808,2789,2782,2769,2697,2664,2566,2526,2494,2394,2371,2306,2266,2262,2260,2267,2261,2254,2244,2245,2262,2389,2669,2785,3168,3280,3527,3586,3547,3375,3330,3186,3069,3030,3002,2919,2901,2829,2759,2735,2672,2563,2466,2361,2288,2277,2277,2267,2261,2263,2256,2249,2241,2217,2201,2178,2204,2437,2778,3189,3308,3420,3609,3626,3598,3482,3297,3169,3063,2907,2841,2735,2637,2594,2450,2368,2339,2288,2247,2225,2225,2208,2199,2179,2178,2158,2144,2126,2165,2326,2420,2761,3152,3258,3500,3514,3409,3258,3213,3040,2936,2858,2852,2814,2806,2771,2657,2543,2446,2412,2322,2299,2303,2312,2309,2295,2299,2318,2484,2561,2975,3312,3354,3172,3010,2968,2850,2793,2777,2765,2767,2726,2647,2619,2581,2483,2390,2345,2306,2281,2289,2297,2291,2290,2319,2477,2760,2883,3236,3527,3555,3513,3382,3326,3170,3115,3072,2904,2788,2728,2717,2659,2643,2533,2404,2318,2300,2245,2238,2213,2203,2201,2205,2198,2193,2182,2172,2167,2233,2433,2537,2894,3252,3457,3496,3473,3324,3149,3067,2961,2867,2847,2783,2708,2636,2602,2575,2474,2343,2319,2280,2249,2233,2236,2222,2224,2208,2187,2185,2173,2156,2152,2212,2428,2527,3030,3430,3486,3512,3423,3372,3329,3181,3139,3012,2885,2866,2841,2794,2727,2647,2620,2451,2342,2295,2280,2263,2256,2255,2252,2257,2251,2251,2253,2248,2245,2231,2277,2454,2781,3166,3290,3540,3549,3395,3224,3165,3034,2994,2906,2899,2875,2834,2727,2618,2496,2400,2330,2288,2287,2282,2290,2289,2299,2300,2294,2293,2285,2373,2431,2716,3093,3338,3444,3620,3619,3584,3444,3386,3334,3177,3014,2985,2910,2867,2802,2719,2616,2462,2363,2299,2254,2233,2236,2232,2237,2234,2231,2223,2216,2262,2370,2667,2789,2926,3311,3569,3606,3630,3581,3451,3397,3250,3160,3038,2951,2885,2837,2774,2720,2620,2504,2471,2345,2280,2269,2255,2240,2230,2232,2228,2223,2223,2204,2190,2281,2528,2635,3016,3421,3471,3505,3485,3368,3315,3168,3034,2936,2866,2853,2819,2784,2688,2579,2469,2373,2351,2293,2283,2261,2261,2258,2266,2264,2257,2238,2255,2448,2734,3072,3169,3366,3365,3328,3286,3131,2984,2903,2817,2783,2770,2756,2683,2623,2553,2516,2420,2344,2327,2310,2283,2275,2272,2274,2266,2263,2305,2342,2551,3110,3222,3455,3519,3505,3408,3221,3176,3015,2982,2900,2846,2802,2747,2664,2633,2599,2500,2412,2352,2313,2297,2290,2290,2283,2280,2267,2254,2257,2357,2421,2817,2935,3266,3488,3449,3416,3380,3255,3134,3021,2925,2854,2797,2734,2654,2530,2443,2419,2396,2345,2312,2305,2290,2283,2281,2278,2267,2237,2231,2335,2400,2681,2793,2909,3224,3401,3423,3428,3368,3247,3203,3158,2990,2859,2835,2783,2769,2709,2638,2548,2489,2415,2395,2379,2342,2322,2318,2307,2302,2298,2297,2277,2270,2252,2256,2282,2442,2523,2816,2918,3171,3262,3269,3247,3126,3079,3029,2893,2782,2733,2696,2678,2674,2664,2622,2482,2394,2319,2302,2284,2253,2244,2235,2239,2238,2241,2240,2232,2223,2243,2380,2455,2549,2885,3008,3316,3441,3489,3473,3379,3166,3084,2941,2887,2826,2772,2757,2736,2666,2607,2514,2430,2403,2347,2302,2294,2280,2280,2276,2276,2272,2267,2260,2257,2233,2221,2225,2329,2395,2702,2825,3331,3566,3612,3532,3446,3351,3302,3166,3004,2909,2846,2824,2807,2742,2622,2589,2553,2452,2364,2344,2290,2268,2262,2242,2230,2226,2221,2216,2208,2188,2169,2162,2203,2242,2303,2698,3081,3202,3304,3499,3511,3488,3313,3165,3122,2973,2902,2891,2878,2861,2851,2795,2714,2677,2568,2462,2434,2358,2344,2307,2293,2293,2283,2281,2278,2262,2236,2232,2227,2251,2493,2961,3316,3530,3556,3534,3496,3456,3296,3144,3096,3058,2953,2879,2873,2840,2797,2717,2616,2500,2470,2434,2358,2321,2282,2271,2265,2267,2265,2268,2254,2238,2308,2544,2914,3061,3562,3745,3642,3439,3384,3244,3050,2971,2886,2778,2741,2709,2586,2472,2432,2402,2344,2264,2247,2226,2217,2217,2208,2210,2203,2202,2186,2176,2159,2132,2156,2309,2631,2760,2906,3309,3421,3611,3588,3506,3357,3168,3051,2974,2917,2874,2853,2750,2601,2566,2450,2368,2329,2290,2282,2278,2284,2289,2286,2288,2278,2264,2242,2307,2619,2974,3373,3472,3472,3447,3325,3264,3211,3036,2908,2822,2811,2789,2792,2786,2739,2651,2549,2507,2413,2380,2360,2298,2275,2268,2264,2276,2278,2271,2275,2345,2563,3029,3374,3467,3598,3609,3532,3184,3015,2904,2852,2787,2714,2676,2524,2419,2326,2269,2223,2218,2221,2208,2204,2204,2348,2428,2725,3083,3182,3277,3426,3424,3360,3315,3183,3047,3012,2877,2846,2827,2769,2707,2645,2548,2479,2345,2247,2234,2192,2174,2167,2170,2160,2142,2140,2144,2260,2648,2780,3158,3472,3503,3475,3363,3266,3215,3087,2973,2947,2878,2845,2830,2824,2777,2761,2646,2542,2514,2481,2414,2365,2356,2357,2350,2351,2344,2345,2321,2332,2349,2503,2670,3087,3320,3369,3388,3366,2994,2764,2748,2767,2668,2525,2395,2338,2297,2276,2270,2377,2694,2991,3261,3226,3013,2799,2689,2649,2649,2520,2387,2284,2246,2225,2222,2222,2339,2407,2483,2798,2911,3324,3463,3467,3413,3190,3099,2976,2865,2754,2700,2607,2581,2546,2449,2353,2330,2255,2222,2212,2213,2233,2447,2764,3240,3463,3508,3425,3383,3265,3219,3096,2971,2876,2801,2721,2648,2615,2485,2395,2343,2273,2242,2237,2230,2223,2215,2210,2206,2193,2191,2176,2159,2157,2149,2144,2150,2338,2671,2808,2957,3370,3636,3675,3681,3530,3480,3337,3145,3096,3053,2931,2900,2812,2736,2680,2647,2550,2443,2411,2323,2261,2245,2234,2213,2208,2210,2210,2211,2208,2208,2196,2186,2178,2166,2151,2149,2143,2129,2143,2164,2337,2667,3239,3682,3514,3358,3170,3055,2959,2944,2896,2838,2750,2643,2603,2469,2396,2376,2340,2319,2318,2309,2304,2303,2291,2268,2247,2237,2218,2210,2201,2256,2464,2681,3196,3474,3526,3550,3525,3322,3139,3032,2905,2819,2809,2800,2782,2771,2705,2676,2643,2495,2393,2314,2295,2252,2245,2238,2231,2240,2243,2253,2256,2258,2320,2519,2994,3388,3685,3685,3609,3383,3209,3061,2950,2862,2785,2570,2337,2186,2160,2154,2156,2154,2142,2129,2140,2165,2347,2687,2826,3246,3465,3624,3592,3504,3272,3108,3060,2912,2835,2785,2675,2531,2380,2287,2207,2181,2174,2180,2187,2189,2192,2186,2185,2180,2164,2163,2443,2819,3386,3649,3699,3593,3360,3302,3248,3110,3019,2998,2964,2935,2922,2862,2678,2595,2486,2384,2338,2334,2347,2348,2357,2343,2328,2322,2419,2653,2873,2993,3310,3486,3501,3447,3235,3060,2926,2811,2794,2740,2651,2613,2466,2436,2330,2280,2273,2260,2258,2265,2274,2271,2258,2266,2392,2784,2908,3287,3594,3515,3373,3174,3126,3088,2980,2911,2890,2851,2786,2760,2736,2635,2491,2461,2374,2321,2300,2279,2276,2275,2273,2266,2242,2235,2310,3118,3520,3230,2983,2872,2819,2739,2653,2513,2413,2327,2309,2248,2225,2223,2221,2220,2224,2212,2203,14
3047,3085,3070,3056,3023,3008,2968,2949,2870,2815,2794,2751,2734,2724,2680,2668,2619,2606,2559,2524,2492,2472,2454,2454,2448,2443,2434,2437,2437,2434,2438,2437,2458,2474,2587,2638,2766,2905,2974,3120,3168,3161,3153,3094,3076,3051,2995,2933,2915,2892,2838,2805,2748,2703,2637,2590,2540,2530,2491,2468,2444,2433,2425,2420,2413,2408,2396,2417,2499,2661,2720,2789,2954,3059,3068,3046,3020,3004,2970,2920,2906,2885,2837,2789,2765,2729,2712,2701,2650,2586,2558,2534,2496,2494,2484,2473,2458,2452,2446,2432,2432,2472,2602,2855,2915,2977,3094,3130,3122,3099,3059,3050,3030,2984,2958,2941,2898,2856,2798,2787,2740,2696,2663,2606,2594,2533,2518,2489,2461,2459,2438,2429,2413,2405,2389,2383,2375,2413,2542,2729,2804,2869,3036,3108,3101,3060,3028,3010,2999,2945,2895,2871,2857,2796,2752,2712,2690,2678,2623,2579,2560,2550,2510,2487,2449,2441,2419,2418,2402,2405,2424,2563,2620,2791,2945,2974,3001,3016,2999,2992,2976,2941,2924,2915,2896,2860,2814,2784,2769,2744,2730,2723,2672,2623,2571,2546,2524,2489,2471,2455,2450,2439,2440,2429,2431,2454,2541,2591,2638,2819,2969,3029,3062,3041,3021,3017,2983,2952,2934,2893,2825,2796,2759,2705,2665,2647,2612,2573,2568,2538,2535,2511,2509,2488,2487,2478,2470,2457,2455,2448,2442,2447,2485,2609,2658,2911,3067,3094,3137,3131,3111,3095,3042,2995,2982,2926,2912,2862,2810,2801,2755,2744,2724,2679,2660,2618,2574,2532,2521,2506,2497,2485,2477,2469,2463,2460,2455,2453,2450,2444,2445,2447,2461,2542,2704,2836,3021,3132,3142,3149,3119,3085,3036,2985,2974,2917,2880,2873,2860,2840,2789,2776,2756,2701,2642,2627,2555,2520,2500,2474,2461,2449,2489,2666,2862,2931,2988,3117,3142,3137,3086,3014,2964,2931,2877,2863,2820,2810,2774,2708,2637,2582,2526,2499,2474,2452,2443,2441,2430,2423,2415,2408,2455,2582,2855,3048,3091,3158,3157,3128,3111,3097,3043,3028,2968,2951,2882,2800,2784,2732,2719,2665,2650,2629,2577,2521,2491,2455,2421,2400,2377,2364,2360,2356,2348,2354,2422,2579,2881,3084,3178,3169,3124,3074,3058,2999,2935,2910,2889,2827,2811,2759,2743,2689,2672,2613,2595,2538,2524,2480,2439,2434,2415,2408,2399,2390,2385,2377,2372,2369,2377,2495,2757,3040,3091,3168,3172,3166,3106,3049,2930,2851,2805,2761,2746,2655,2576,2525,2513,2477,2454,2448,2423,2412,2406,2397,2394,2385,2398,2486,2665,2893,2967,3168,3189,3198,3160,3111,3094,3032,2956,2879,2813,2758,2672,2572,2534,2486,2447,2413,2401,2386,2374,2363,2353,2344,2341,2346,2400,2620,2866,2950,3160,3267,3268,3263,3224,3176,3157,3093,2981,2872,2805,2750,2694,2675,2654,2595,2539,2522,2504,2464,2430,2421,2399,2394,2380,2377,2366,2365,2355,2349,2347,2347,2345,2352,2353,2377,2449,2618,2691,2944,3023,3244,3278,3219,3197,3141,3103,3037,3017,2991,2927,2869,2855,2819,2800,2785,2722,2656,2613,2552,2493,2485,2454,2436,2434,2419,2412,2400,2394,2389,2381,2379,2375,2382,2483,2533,2833,3081,3267,3275,3174,3119,3047,2940,2870,2805,2769,2712,2625,2557,2540,2519,2472,2433,2426,2399,2396,2379,2373,2365,2352,2345,2333,2326,2329,2326,2332,2341,2403,2449,2734,3004,3274,3308,3325,3317,3258,3217,3135,3065,3035,2956,2878,2859,2798,2722,2705,2639,2621,2597,2541,2454,2419,2396,2394,2377,2362,2363,2350,2347,2343,2346,2349,2400,2539,2856,3110,3183,3300,3313,3277,3256,3225,3150,3077,3059,2998,2984,2928,2914,2895,2855,2784,2697,2605,2543,2501,2460,2435,2423,2407,2394,2389,2377,2364,2365,2367,2449,2495,2560,2792,3265,3267,3197,3109,3051,3025,2961,2932,2870,2808,2757,2693,2601,2583,2514,2464,2445,2400,2375,2368,2362,2356,2353,2341,2345,2336,2337,2330,2334,2344,2369,2493,2564,2813,2912,3157,3223,3313,3323,3313,3242,3184,3160,3143,3047,2961,2859,2799,2775,2733,2671,2599,2512,2497,2445,2420,2396,2373,2364,2355,2352,2345,2348,2340,2334,2337,2330,2346,2371,2398,2566,2809,2904,3141,3203,3283,3289,3242,3224,3197,3129,3102,3038,3012,2922,2868,2847,2835,2781,2726,2700,2636,2609,2591,2526,2458,2428,2405,2404,2390,2390,2376,2368,2361,2346,2350,2431,2475,2689,3038,3108,3273,3274,3199,3172,3110,3082,3031,2917,2843,2774,2759,2696,2656,2570,2511,2453,2413,2391,2362,2348,2340,2340,2327,2316,2310,2301,2551,2912,3274,3329,3271,3216,3191,3172,3086,2996,2959,2876,2757,2741,2674,2656,2610,2539,2421,2350,2334,2317,2311,2301,2301,2297,2300,2297,2300,2299,2314,2325,2436,2743,3116,3295,3348,3309,3225,3115,2932,2850,2749,2626,2559,2499,2485,2441,2414,2403,2399,2380,2372,2365,2365,2356,2348,2350,2343,2346,2344,2378,2498,2637,2722,2986,3203,3246,3290,3218,3198,3126,3056,3028,2948,2918,2896,2825,2747,2730,2645,2575,2556,2493,2404,2369,2353,2345,2333,2325,2308,2295,2285,2285,2331,2363,2621,2806,3158,3301,3317,3271,3182,3157,3135,3052,2924,2835,2806,2708,2643,2619,2599,2529,2451,2437,2386,2360,2342,2335,2327,2320,2319,2313,2312,2309,2308,2315,2320,2408,2606,2697,2791,3095,3369,3397,3414,3396,3380,3359,3295,3221,3197,3078,2982,2955,2860,2797,2778,2710,2688,2663,2591,2502,2482,2438,2413,2386,2368,2344,2337,2331,2327,2325,2325,2343,2366,2507,2578,2839,3108,3179,3309,3230,3147,3043,2969,2876,2821,2754,2698,2629,2605,2513,2456,2441,2403,2386,2366,2343,2334,2328,2323,2333,2351,2476,2803,2901,2999,3242,3365,3266,3114,2998,2913,2821,2761,2697,2674,2603,2533,2510,2454,2437,2422,2376,2353,2338,2334,2326,2323,2322,2317,2315,2316,2323,2403,2519,2768,3047,3129,3313,3324,3301,3221,3151,2979,2834,2749,2667,2599,2508,2449,2430,2415,2373,2336,2321,2310,2304,2299,2296,2296,2295,2296,2295,2297,2307,2384,2431,2492,2722,2985,3060,3232,3217,3201,3139,3080,3059,2935,2881,2818,2764,2707,2684,2664,2578,2523,2509,2493,2463,2439,2436,2417,2412,2405,2399,2393,2384,2373,2397,2711,2950,3179,3227,3222,3189,3156,3100,3041,2966,2895,2815,2759,2743,2681,2662,2638,2576,2500,2455,2414,2410,2388,2376,2370,2364,2356,2351,2349,2338,2332,2326,2320,2322,2326,2436,2707,2793,3031,3218,3237,3230,3182,3132,3091,3019,2935,2913,2807,2753,2673,2651,2591,2531,2500,2463,2432,2411,2404,2382,2358,2355,2333,2324,2322,2324,2343,2363,2437,2585,2808,3100,3214,3234,3220,3180,3169,3112,3050,3030,2956,2938,2899,2862,2842,2795,2736,2718,2653,2635,2613,2561,2541,2502,2487,2460,2431,2421,2410,2381,2378,2368,2393,2527,2799,3087,3132,3213,3200,3190,3135,3121,3063,3009,2943,2867,2824,2770,2691,2673,2605,2548,2495,2445,2440,2414,2401,2393,2380,2366,2361,2350,2344,2346,2337,2343,2344,2407,2555,2632,2875,3159,3207,3233,3260,3220,3209,3146,3086,3070,2994,2975,2946,2857,2804,2780,2698,2613,2596,2535,2494,2468,2436,2432,2409,2409,2391,2391,2384,2375,2360,2354,2345,2335,2341,2425,2468,2661,2965,3026,3153,3167,3172,3094,2960,2833,2770,2707,2660,2589,2540,2506,2491,2458,2443,2433,2424,2417,2403,2395,2398,2392,2395,2390,2396,2426,2535,2583,2644,2900,3075,3061,3005,2970,2954,2901,2868,2854,2816,2790,2775,2736,2672,2614,2575,2553,2529,2517,2508,2501,2494,2495,2481,2471,2472,2465,2481,2565,2729,2788,2984,3108,3144,3148,3135,3108,3073,3064,3047,3005,2936,2916,2905,2859,2825,2807,2765,2695,2672,2607,2571,2554,2517,2503,2488,2469,2469,2453,2437,2431,2446,2457,2557,2603,2861,3052,3094,3176,3168,3155,3129,3092,3082,3062,2987,2930,2907,2861,2827,2809,2761,2686,2590,2545,2504,2466,2462,2453,2440,2424,2415,2408,2407,2392,2385,2380,2375,2371,2368,2387,2404,2523,2713,2861,3054,3144,3150,3107,3044,3001,2982,2913,2869,2853,2798,2733,2655,2638,2564,2493,2459,2445,2428,2407,2394,2383,2541,2737,2964,3163,3192,3190,3151,3087,3036,2995,2971,2907,2845,2831,2764,2705,2688,2624,2547,2502,2464,2439,2418,2407,2394,2387,2376,2358,2356,2343,2337,2346,2412,2459,2652,2734,2815,3117,3233,3243,3236,3205,3148,3130,3059,2980,2949,2869,2843,2823,2762,2711,2691,2675,2611,2530,2515,2454,2422,2416,2407,2394,2381,2381,2371,2371,2366,2360,2346,2339,2352,2391,2528,2748,2909,3104,3192,3171,3116,3039,2972,2896,2808,2790,2744,2682,2631,2611,2593,2539,2482,2453,2429,2413,2399,2395,2384,2379,2374,2370,2371,2381,2464,2764,3013,3099,3105,3078,3005,2952,2911,2852,2801,2760,2717,2666,2609,2536,2520,2479,2431,2423,2407,2401,2390,2384,2383,2385,2388,2389,2422,2524,2574,2823,2991,3058,3085,3083,3055,3011,2967,2932,2870,2851,2787,2750,2711,2697,2683,2633,2617,2568,2554,2515,2505,2467,2459,2441,2424,2420,2409,2399,2391,2387,2386,2383,2413,2437,2561,2734,2793,2942,3012,3018,3019,3007,3003,2999,2987,2961,2950,2940,2901,2861,2837,2810,2800,2788,2744,2696,2665,2651,2609,2598,2557,2535,2529,2522,2509,2491,2477,2468,2464,2456,2454,2452,2463,2477,2568,2660,2820,2868,2977,3001,2994,2979,2977,2990,2983,2951,2919,2876,2772,2700,2616,2585,2553,2531,2515,2495,2481,2469,2456,2452,2469,2490,2593,2691,2936,2989,3008,2983,2956,2919,2876,2849,2837,2809,2777,2769,2719,2677,2667,2624,2595,2589,2566,2550,2541,2538,2518,2515,2507,2492,2473,2470,2464,2448,2442,2435,2439,2472,2535,2681,2733,2935,2991,3019,3005,2987,2984,2955,2903,2858,2814,2751,2658,2608,2549,2519,2497,2476,2465,2450,2449,2443,2432,2425,2427,2423,2440,2454,2554,2702,2760,2813,2944,2967,2986,2983,2957,2955,2947,2936,2912,2905,2867,2836,2824,2818,2791,2765,2751,2742,2691,2650,2641,2611,2605,2594,2579,2561,2535,2501,2474,2610,2935,2985,2963,2931,2918,2894,2870,2857,2851,2825,2811,2802,2799,2762,2717,2705,2652,2639,2618,2554,2521,2505,2485,2480,2474,2464,2458,2460,2474,2509,2661,2821,2992,3028,3022,3010,3006,2983,2952,2901,2885,2849,2814,2808,2795,2749,26
