1,2,3,4,5,6,7,8,9,10,11,12,13,14,15,16,17,18,19,20,21,22,23,24,25,26,27,28,29,30,31,32,33,34,35,36,37,38,39,40,41,42,43,44,45,46,47,48,49,50,51,52,53,54,55,56,57,58,59,60,61,62,63,64,65,66,67,68,69,70,71,72,73,74,75,76,77,78,79,80,81,82,83,84,85,86,87,88,89,90,91,92,93,94,95,96,97,98,99,100,101,102,103,104,105,106,107,108,109,110,111,112,113,114,115,116,117,118,119,120,121,122,123,124,125,126,127,128,129,130,131,132,133,134,135,136,137,138,139,140,141,142,143,144,145,146,147,148,149,150,151,152,153,154,155,156,157,158,159,160,161,162,163,164,165,166,167,168,169,170,171,172,173,174,175,176,177,178,179,180,181,182,183,184,185,186,187,188,189,190,191,192,193,194,195,196,197,198,199,200,201,202,203,204,205,206,207,208,209,210,211,212,213,214,215,216,217,218,219,220,221,222,223,224,225,226,227,228,229,230,231,232,233,234,235,236,237,238,239,240,241,242,243,244,245,246,247,248,249,250,251,252,253,254,255,256,257,258,259,260,261,262,263,264,265,266,267,268,269,270,271,272,273,274,275,276,277,278,279,280,281,282,283,284,285,286,287,288,289,290,291,292,293,294,295,296,297,298,299,300,301,302,303,304,305,306,307,308,309,310,311,312,313,314,315,316,317,318,319,320,321,322,323,324,325,326,327,328,329,330,331,332,333,334,335,336,337,338,339,340,341,342,343,344,345,346,347,348,349,350,351,352,353,354,355,356,357,358,359,360,361,362,363,364,365,366,367,368,369,370,371,372,373,374,375,376,377,378,379,380,381,382,383,384,385,386,387,388,389,390,391,392,393,394,395,396,397,398,399,400,401,402,403,404,405,406,407,408,409,410,411,412,413,414,415,416,417,418,419,420,421,422,423,424,425,426,427,428,429,430,431,432,433,434,435,436,437,438,439,440,441,442,443,444,445,446,447,448,449,450,451,452,453,454,455,456,457,458,459,460,461,462,463,464,465,466,467,468,469,470,471,472,473,474,475,476,477,478,479,480,481,482,483,484,485,486,487,488,489,490,491,492,493,494,495,496,497,498,499,500,501,502,503,504,505,506,507,508,509,510,511,512,513,514,515,516,517,518,519,520,521,522,523,524,525,526,527,528,529,530,531,532,533,534,535,536,537,538,539,540,541,542,543,544,545,546,547,548,549,550,551,552,553,554,555,556,557,558,559,560,561,562,563,564,565,566,567,568,569,570,571,572,573,574,575,576,577,578,579,580,581,582,583,584,585,586,587,588,589,590,591,592,593,594,595,596,597,598,599,600,601,602,603,604,605,606,607,608,609,610,611,612,613,614,615,616,617,618,619,620,621,622,623,624,625,626,627,628,629,630,631,632,633,634,635,636,637,638,639,640,641,642,643,644,645,646,647,648,649,650,651,652,653,654,655,656,657,658,659,660,661,662,663,664,665,666,667,668,669,670,671,672,673,674,675,676,677,678,679,680,681,682,683,684,685,686,687,688,689,690,691,692,693,694,695,696,697,698,699,700,701,702,703,704,705,706,707,708,709,710,711,712,713,714,715,716,717,718,719,720,721,722,723,724,725,726,727,728,729,730,731,732,733,734,735,736,737,738,739,740,741,742,743,744,745,746,747,748,749,750,751,752,753,754,755,756,757,758,759,760,761,762,763,764,765,766,767,768,769,770,771,772,773,774,775,776,777,778,779,780,781,782,783,784,785,786,787,788,789,790,791,792,793,794,795,796,797,798,799,800,801,802,803,804,805,806,807,808,809,810,811,812,813,814,815,816,817,818,819,820,821,822,823,824,825,826,827,828,829,830,831,832,833,834,835,836,837,838,839,840,841,842,843,844,845,846,847,848,849,850,851,852,853,854,855,856,857,858,859,860,861,862,863,864,865,866,867,868,869,870,871,872,873,874,875,876,877,878,879,880,881,882,883,884,885,886,887,888,889,890,891,892,893,894,895,896,897,898,899,900,901,902,903,904,905,906,907,908,909,910,911,912,913,914,915,916,917,918,919,920,921,922,923,924,925,926,927,928,929,930,931,932,933,934,935,936,937,938,939,940,941,942,943,944,945,946,947,948,949,950,951,952,953,954,955,956,957,958,959,960,961,962,963,964,965,966,967,968,969,970,971,972,973,974,975,976,977,978,979,980,981,982,983,984,985,986,987,988,989,990,991,992,993,994,995,996,997,998,999,1000,1001,1002,1003,1004,1005,1006,1007,1008,1009,1010,1011,1012,1013,1014,1015,1016,1017,1018,1019,1020,1021,1022,1023,1024,1025,1026,1027,1028,1029,1030,1031,1032,1033,1034,1035,1036,1037,1038,1039,1040,1041,1042,1043,1044,1045,1046,1047,1048,1049,1050,1051,1052,1053,1054,1055,1056,1057,1058,1059,1060,1061,1062,1063,1064,1065,1066,1067,1068,1069,1070,1071,1072,1073,1074,1075,1076,1077,1078,1079,1080,1081,1082,1083,1084,1085,1086,1087,1088,1089,1090,1091,1092,1093,1094,1095,1096,1097,1098,1099,1100,1101,1102,1103,1104,1105,1106,1107,1108,1109,1110,1111,1112,1113,1114,1115,1116,1117,1118,1119,1120,1121,1122,1123,1124,1125,1126,1127,1128,1129,1130,1131,1132,1133,1134,1135,1136,1137,1138,1139,1140,1141,1142,1143,1144,1145,1146,1147,1148,1149,1150,1151,1152,1153,1154,1155,1156,1157,1158,1159,1160,1161,1162,1163,1164,1165,1166,1167,1168,1169,1170,1171,1172,1173,1174,1175,1176,1177,1178,1179,1180,1181,1182,1183,1184,1185,1186,1187,1188,1189,1190,1191,1192,1193,1194,1195,1196,1197,1198,1199,1200,1201,1202,1203,1204,1205,1206,1207,1208,1209,1210,1211,1212,1213,1214,1215,1216,1217,1218,1219,1220,1221,1222,1223,1224,1225,1226,1227,1228,1229,1230,1231,1232,1233,1234,1235,1236,1237,1238,1239,1240,1241,1242,1243,1244,1245,1246,1247,1248,1249,1250,1251,1252,1253,1254,1255,1256,1257,1258,1259,1260,1261,1262,1263,1264,1265,1266,1267,1268,1269,1270,1271,1272,1273,1274,1275,1276,1277,1278,1279,1280,1281,1282,1283,1284,1285,1286,1287,1288,1289,1290,1291,1292,1293,1294,1295,1296,1297,1298,1299,1300,1301,1302,1303,1304,1305,1306,1307,1308,1309,1310,1311,1312,1313,1314,1315,1316,1317,1318,1319,1320,1321,1322,1323,1324,1325,1326,1327,1328,1329,1330,1331,1332,1333,1334,1335,1336,1337,1338,1339,1340,1341,1342,1343,1344,1345,1346,1347,1348,1349,1350,1351,1352,1353,1354,1355,1356,1357,1358,1359,1360,1361,1362,1363,1364,1365,1366,1367,1368,1369,1370,1371,1372,1373,1374,1375,1376,1377,1378,1379,1380,1381,1382,1383,1384,1385,1386,1387,1388,1389,1390,1391,1392,1393,1394,1395,1396,1397,1398,1399,1400,1401,1402,1403,1404,1405,1406,1407,1408,1409,1410,1411,1412,1413,1414,1415,1416,1417,1418,1419,1420,1421,1422,1423,1424,1425,1426,1427,1428,1429,1430,1431,1432,1433,1434,1435,1436,1437,1438,1439,1440,1441,1442,1443,1444,1445,1446,1447,1448,1449,1450,1451,1452,1453,1454,1455,1456,1457,1458,1459,1460,1461,1462,1463,1464,1465,1466,1467,1468,1469,1470,1471,1472,1473,1474,1475,1476,1477,1478,1479,1480,1481,1482,1483,1484,1485,1486,1487,1488,1489,1490,1491,1492,1493,1494,1495,1496,1497,1498,1499,1500,1501,1502,1503,1504,1505,1506,1507,1508,1509,1510,1511,1512,1513,1514,1515,1516,1517,1518,1519,1520,1521,1522,1523,1524,1525,1526,1527,1528,1529,1530,1531,1532,1533,1534,1535,1536,1537,1538,1539,1540,1541,1542,1543,1544,1545,1546,1547,1548,1549,1550,1551,1552,1553,1554,1555,1556,1557,1558,1559,1560,1561,1562,1563,1564,1565,1566,1567,1568,1569,1570,1571,1572,1573,1574,1575,1576,1577,1578,1579,1580,1581,1582,1583,1584,1585,1586,1587,1588,1589,1590,1591,1592,1593,1594,1595,1596,1597,1598,1599,1600,1601,1602,1603,1604,1605,1606,1607,1608,1609,1610,1611,1612,1613,1614,1615,1616,1617,1618,1619,1620,1621,1622,1623,1624,1625,1626,1627,1628,1629,1630,1631,1632,1633,1634,1635,1636,1637,1638,1639,1640,1641,1642,1643,1644,1645,1646,1647,1648,1649,1650,1651,1652,1653,1654,1655,1656,1657,1658,1659,1660,1661,1662,1663,1664,1665,1666,1667,1668,1669,1670,1671,1672,1673,1674,1675,1676,1677,1678,1679,1680,1681,1682,1683,1684,1685,1686,1687,1688,1689,1690,1691,1692,1693,1694,1695,1696,1697,1698,1699,1700,1701,1702,1703,1704,1705,1706,1707,1708,1709,1710,1711,1712,1713,1714,1715,1716,1717,1718,1719,1720,1721,1722,1723,1724,1725,1726,1727,1728,1729,1730,1731,1732,1733,1734,1735,1736,1737,1738,1739,1740,1741,1742,1743,1744,1745,1746,1747,1748,1749,1750,1751,1752,1753,1754,1755,1756,1757,1758,1759,1760,1761,1762,1763,1764,1765,1766,1767,1768,1769,1770,1771,1772,1773,1774,1775,1776,1777,1778,1779,1780,1781,1782,1783,1784,1785,1786,1787,1788,1789,1790,1791,1792,1793,1794,1795,1796,1797,1798,1799,1800,stress_score
2796,2855,3021,3102,3106,3091,3080,3013,2956,2916,2853,2757,2724,2692,2684,2645,2617,2574,2527,2517,2502,2462,2444,2435,2427,2426,2423,2425,2424,2426,2425,2422,2423,2427,2452,2472,2507,2712,2904,2964,3056,3113,3102,3060,3018,2999,2964,2923,2904,2832,2813,2758,2746,2731,2689,2657,2617,2605,2564,2553,2518,2510,2499,2474,2461,2455,2452,2449,2449,2451,2449,2455,2461,2549,2592,2758,2823,2947,3048,3123,3131,3103,3087,3032,2998,2965,2950,2895,2879,2860,2818,2795,2775,2746,2712,2685,2656,2610,2571,2558,2519,2507,2503,2496,2483,2482,2472,2475,2498,2588,2682,2735,2791,2943,2981,3030,3038,3040,3010,2962,2944,2928,2877,2860,2802,2784,2737,2726,2699,2693,2672,2664,2633,2621,2580,2566,2553,2516,2506,2479,2473,2460,2456,2450,2449,2449,2449,2449,2449,2451,2455,2498,2527,2661,2720,2904,2960,3008,3104,3098,3087,3073,3026,2978,2922,2859,2801,2770,2737,2718,2690,2651,2621,2577,2509,2482,2465,2462,2455,2454,2452,2453,2455,2456,2456,2455,2453,2452,2456,2463,2526,2563,2725,2920,2982,3035,3137,3150,3137,3123,3077,3062,2998,2939,2874,2793,2761,2729,2687,2673,2624,2594,2554,2520,2512,2488,2484,2478,2471,2466,2464,2461,2457,2456,2455,2456,2457,2457,2459,2459,2480,2496,2601,2650,2839,2903,3069,3142,3129,3095,3072,3015,2994,2977,2917,2898,2857,2836,2820,2776,2768,2740,2734,2701,2664,2647,2634,2586,2550,2536,2528,2500,2496,2489,2478,2475,2477,2475,2473,2471,2474,2475,2520,2629,2683,2737,2915,3038,3075,3039,2962,2908,2886,2805,2788,2734,2724,2694,2690,2669,2645,2631,2621,2577,2565,2522,2512,2478,2473,2453,2451,2442,2442,2439,2442,2443,2447,2444,2449,2441,2414,2420,2460,2587,2777,2834,2937,2977,2999,3022,3011,2975,2958,2920,2903,2891,2820,2783,2750,2712,2691,2681,2677,2646,2613,2570,2535,2520,2493,2468,2467,2460,2457,2452,2456,2452,2455,2450,2453,2449,2451,2447,2449,2445,2455,2462,2585,2775,2990,3162,3224,3206,3168,3105,3089,3024,3005,2930,2866,2843,2830,2780,2747,2717,2670,2628,2610,2582,2533,2528,2502,2492,2487,2485,2478,2480,2477,2477,2481,2478,2482,2479,2482,2492,2500,2582,2623,2805,2871,3067,3112,3154,3192,3168,3105,3033,2976,2953,2938,2875,2861,2809,2801,2768,2764,2751,2724,2678,2667,2645,2580,2542,2525,2500,2478,2479,2472,2473,2470,2474,2474,2485,2538,2673,2725,2917,3025,3109,3110,3089,3031,2965,2927,2873,2807,2758,2717,2712,2683,2678,2639,2629,2578,2567,2516,2489,2461,2436,2436,2427,2425,2421,2421,2426,2423,2430,2427,2429,2433,2429,2433,2429,2452,2466,2580,2699,2907,2980,3094,3162,3171,3163,3125,3099,3082,3017,3002,2962,2937,2919,2846,2829,2790,2769,2759,2714,2699,2670,2651,2612,2592,2553,2507,2500,2480,2452,2443,2435,2435,2429,2432,2426,2428,2422,2427,2424,2417,2505,2656,3014,3148,3184,3169,3115,3030,2990,2922,2835,2784,2737,2723,2699,2650,2631,2591,2571,2517,2492,2467,2461,2457,2458,2458,2460,2467,2467,2475,2586,2766,3030,3076,3165,3163,3144,3129,3055,3037,2996,2956,2893,2878,2854,2808,2789,2761,2748,2726,2705,2656,2645,2589,2557,2547,2529,2500,2487,2473,2467,2457,2462,2458,2457,2460,2455,2477,2488,2593,2755,2941,3058,3083,3077,3068,3006,2993,2931,2918,2850,2806,2749,2727,2700,2661,2643,2612,2561,2520,2474,2467,2448,2424,2416,2417,2416,2414,2421,2421,2416,2420,2415,2424,2466,2724,2991,3133,3122,3078,3055,3042,2982,2966,2892,2872,2791,2774,2749,2708,2672,2646,2573,2534,2482,2448,2447,2429,2432,2424,2429,2422,2426,2421,2425,2420,2426,2422,2428,2425,2434,2505,2709,2769,2973,3104,3138,3127,3069,3056,2997,2985,2919,2902,2829,2814,2759,2751,2735,2702,2677,2631,2591,2539,2488,2470,2462,2465,2458,2458,2455,2481,2565,2617,2726,2779,2842,2980,3031,3043,2996,2985,2964,2922,2888,2827,2776,2754,2720,2706,2690,2678,2658,2641,2608,2588,2551,2531,2502,2487,2472,2463,2450,2448,2453,2449,2453,2451,2451,2499,2566,2713,2829,2987,3058,3070,3064,3041,2995,2986,2966,2923,2861,2846,2785,2775,2736,2733,2719,2699,2678,2634,2597,2577,2544,2528,2506,2493,2485,2477,2478,2471,2477,2471,2475,2469,2474,2468,2465,2460,2465,2458,2464,2461,2468,2473,2529,2635,2801,2851,2998,3025,3072,3064,3038,3019,2982,2962,2923,2865,2828,2787,2748,2735,2718,2683,2653,2608,2601,2560,2556,2523,2522,2502,2504,2491,2495,2494,2491,2483,2487,2479,2484,2476,2481,2475,2481,2476,2481,2476,2497,2556,2639,2816,2996,3054,3092,3169,3171,3128,3082,3061,3015,2992,2942,2917,2869,2848,2815,2798,2793,2749,2723,2696,2639,2595,2589,2556,2540,2530,2531,2514,2518,2506,2510,2500,2504,2496,2500,2491,2495,2489,2495,2489,2496,2491,2510,2562,2601,2638,2810,3098,3187,3176,3126,3055,3040,2978,2966,2908,2899,2872,2849,2815,2796,2779,2774,2732,2724,2675,2667,2621,2615,2598,2573,2560,2545,2535,2529,2522,2519,2517,2521,2512,2518,2513,2535,2685,3009,3105,3092,3011,2947,2934,2877,2836,2816,2808,2770,2753,2722,2694,2648,2640,2591,2560,2543,2539,2508,2507,2496,2491,2484,2487,2482,2489,2484,2491,2516,2656,2833,2887,2950,3074,3121,3112,3076,3040,2980,2934,2910,2898,2861,2826,2777,2752,2733,2691,2642,2633,2612,2582,2574,2531,2526,2495,2495,2475,2475,2466,2470,2464,2465,2458,2462,2461,2485,2585,2737,2918,2962,3064,3070,3068,3050,3014,2994,2952,2928,2912,2839,2777,2751,2740,2696,2692,2675,2661,2657,2618,2611,2565,2557,2514,2508,2488,2474,2471,2449,2442,2442,2433,2439,2434,2440,2451,2489,2719,2836,2942,3038,3058,3052,3047,3000,2991,2937,2925,2859,2844,2802,2767,2724,2704,2691,2690,2657,2651,2610,2603,2559,2530,2498,2487,2478,2472,2477,2469,2475,2468,2472,2467,2500,2515,2621,2660,2811,2851,2958,2985,2972,2943,2884,2861,2809,2782,2768,2709,2700,2666,2654,2641,2609,2604,2564,2558,2519,2515,2482,2481,2469,2461,2449,2447,2451,2443,2448,2442,2461,2568,2617,2761,2905,2934,2995,2994,2998,2969,2964,2939,2920,2911,2855,2842,2777,2764,2717,2713,2696,2671,2652,2631,2589,2540,2516,2501,2486,2486,2469,2472,2463,2468,2463,2468,2463,2467,2459,2457,2447,2400,2389,2453,2486,2645,2695,2799,2847,2877,2945,2947,2954,2959,2951,2944,2931,2927,2881,2838,2816,2807,2767,2765,2752,2740,2739,2712,2673,2669,2654,2634,2615,2612,2597,2575,2568,2556,2552,2557,2549,2553,2546,2547,2566,2712,2972,3074,3118,3098,3092,3049,3039,3007,2984,2971,2904,2889,2835,2810,2777,2759,2722,2715,2672,2665,2624,2619,2586,2584,2571,2559,2559,2540,2542,2533,2532,2526,2547,2556,2646,2729,2914,3002,3035,3026,3025,3004,2948,2913,2834,2808,2770,2736,2720,2718,2691,2690,2656,2651,2608,2582,2532,2512,2493,2491,2467,2462,2453,2454,2448,2455,2450,2458,2453,2461,2457,2489,2568,2659,2882,2939,3045,3071,3080,3079,3041,3006,2985,2974,2895,2817,2761,2746,2728,2687,2663,2630,2603,2559,2531,2500,2498,2479,2474,2475,2469,2468,2474,2469,2475,2468,2468,2472,2467,2468,2475,2474,2522,2545,2679,2730,2916,2967,3022,3114,3134,3125,3120,3070,3060,3026,2991,2928,2914,2876,2824,2798,2765,2761,2723,2717,2697,2660,2612,2581,2546,2533,2522,2523,2517,2506,2510,2502,2502,2502,2528,2625,2662,2716,2865,2918,3012,3040,3028,2994,2971,2958,2901,2889,2852,2827,2813,2755,2746,2706,2690,2675,2673,2640,2619,2588,2570,2546,2541,2505,2503,2475,2466,2461,2457,2454,2449,2453,2448,2454,2452,2493,2512,2636,2684,2862,2963,3050,3066,3066,3052,3045,2991,2944,2922,2909,2845,2794,2773,2763,2723,2720,2691,2688,2654,2648,2604,2597,2552,2527,2522,2488,2474,2473,2462,2457,2447,2445,2448,2443,2449,2444,2451,2447,2450,2504,2676,2742,2925,2987,3099,3127,3114,3059,3047,3011,2988,2938,2913,2899,2837,2826,2773,2738,2719,2689,2639,2631,2582,2574,2531,2526,2512,2494,2482,2475,2468,2470,2464,2463,2469,2464,2471,2466,2471,2465,2470,2464,2469,2467,2513,2535,2576,2728,2796,2982,3042,3140,3156,3140,3129,3068,3053,3017,2994,2980,2919,2905,2881,2835,2816,2788,2773,2750,2734,2702,2684,2645,2618,2592,2575,2550,2522,2521,2511,2506,2498,2501,2498,2497,2488,2488,2482,2501,2510,2538,2702,2871,2975,3074,3074,3044,2965,2927,2913,2849,2834,2771,2732,2712,2669,2622,2550,2499,2472,2463,2450,2454,2448,2456,2450,2459,2454,2461,2458,2468,2512,2548,2584,2752,2934,2994,3097,3116,3098,3064,3010,2912,2872,2857,2832,2783,2765,2738,2726,2707,2688,2638,2590,2562,2555,2537,2510,2482,2482,2472,2469,2463,2467,2461,2467,2461,2466,2461,2466,2461,2466,2466,2464,2506,2527,2568,2721,2790,2979,3039,3136,3153,3150,3132,3098,3048,2976,2911,2895,2827,2784,2767,2761,2725,2721,2705,2672,2653,2623,2592,2555,2538,2510,2496,2483,2473,2470,2464,2468,2462,2467,2462,2464,2455,2458,2448,2450,2444,2450,2446,2455,2476,2493,2529,2669,2739,2941,3010,3143,3178,3162,3087,3062,2982,2938,2920,2891,2830,2777,2770,2755,2732,2719,2713,2675,2638,2618,2579,2561,2530,2511,2488,2476,2468,2472,2467,2471,2466,2470,2464,2465,2470,2478,2520,2591,2696,2898,2958,3022,3137,3158,3144,3132,3067,3052,3030,2982,2960,2907,2884,2834,2815,2783,2769,2746,2699,2680,2638,2619,2608,2561,2553,2519,2516,2497,2495,2491,2495,2493,2498,2490,2494,2487,2498,2602,2762,2816,2981,3017,3081,3077,3045,3022,2973,2951,2937,2899,2815,2789,2740,2721,2696,2684,2666,2646,2603,2544,2534,2489,2474,2463,2462,2450,2452,2448,2454,2456,2451,2448,2454,2491,2610,2659,2721,2897,2954,3053,3070,3058,3031,2986,2914,2844,2776,2703,2680,2643,2623,2584,2527,2493,2480,2473,2445,2442,2426,2427,2420,2418,2421,2415,2411,2414,2409,2410,2410,2414,2415,2430,2439,2528,2570,2748,2809,2986,3025,3091,3089,3061,3027,2975,2925,2883,2811,2754,2734,2724,2691,2688,2661,2641,2609,2558,6
2932,2898,2857,2848,2811,2764,2743,2724,2656,2635,2571,2534,2490,2477,2450,2430,2425,2420,2409,2395,2386,2372,2361,2344,2334,2331,2328,2331,2335,2343,2414,2457,2648,2724,2963,3030,3159,3173,3175,3126,3025,3005,2958,2946,2920,2914,2894,2889,2866,2843,2798,2732,2684,2617,2557,2542,2526,2496,2475,2473,2467,2463,2456,2455,2450,2442,2429,2426,2420,2406,2400,2399,2396,2442,2479,2714,2868,3076,3187,3179,3136,3061,2979,2963,2937,2928,2915,2910,2900,2897,2887,2850,2745,2698,2635,2584,2552,2529,2527,2521,2515,2510,2509,2497,2488,2480,2469,2452,2458,2543,2589,2786,2857,3059,3105,3142,3170,3095,3071,2998,2980,2928,2917,2879,2872,2844,2837,2802,2790,2734,2715,2646,2625,2602,2546,2499,2489,2477,2455,2437,2434,2428,2419,2414,2405,2402,2396,2384,2375,2358,2352,2369,2464,2661,2738,2822,3046,3103,3169,3179,3181,3128,3106,3053,3029,3010,2958,2947,2934,2908,2882,2866,2836,2784,2767,2743,2679,2612,2574,2530,2514,2493,2486,2475,2459,2451,2449,2432,2414,2402,2394,2383,2375,2362,2361,2353,2392,2419,2464,2649,2730,2965,3036,3161,3177,3145,3124,3043,2983,2940,2915,2873,2845,2830,2784,2717,2697,2671,2605,2541,2507,2472,2445,2435,2433,2428,2423,2413,2400,2398,2384,2376,2370,2368,2359,2358,2358,2361,2375,2525,2733,2815,3091,3129,3156,3094,3065,2998,2950,2942,2925,2904,2892,2884,2860,2845,2795,2755,2684,2623,2602,2558,2535,2518,2499,2493,2482,2475,2470,2470,2455,2453,2436,2434,2437,2457,2566,2759,2970,3081,3154,3124,3028,2965,2915,2906,2893,2871,2861,2850,2847,2835,2804,2748,2730,2705,2640,2596,2536,2497,2476,2452,2443,2436,2435,2422,2420,2412,2404,2402,2386,2375,2368,2376,2464,2571,2782,2860,2929,3115,3126,3108,3042,2970,2955,2936,2900,2872,2869,2860,2846,2836,2830,2790,2737,2713,2622,2563,2529,2486,2450,2436,2435,2424,2417,2410,2408,2394,2385,2373,2369,2363,2368,2416,2455,2627,2704,2945,3022,3085,3201,3193,3175,3148,3074,2979,2972,2943,2924,2915,2890,2847,2832,2810,2743,2716,2695,2621,2563,2544,2532,2489,2469,2468,2456,2449,2443,2427,2417,2404,2380,2379,2369,2372,2384,2398,2518,2577,2726,2813,2896,3174,3221,3137,3110,3026,2975,2949,2919,2899,2887,2859,2843,2793,2768,2748,2672,2650,2579,2507,2495,2462,2458,2448,2441,2442,2433,2435,2432,2427,2427,2415,2413,2399,2398,2386,2381,2382,2445,2485,2682,2933,3020,3094,3243,3250,3232,3202,3102,3006,2985,2962,2925,2915,2912,2900,2900,2884,2877,2831,2738,2715,2636,2572,2552,2538,2498,2491,2481,2471,2463,2464,2460,2454,2449,2445,2432,2425,2420,2454,2577,2643,2713,2965,3044,3120,3255,3261,3237,3148,3113,3027,3001,2984,2940,2917,2909,2907,2884,2877,2829,2811,2733,2710,2626,2604,2534,2518,2471,2463,2438,2436,2425,2421,2412,2405,2398,2389,2381,2373,2368,2408,2615,2776,3029,3160,3207,3231,3229,3204,3179,3083,3007,2984,2969,2926,2901,2890,2885,2829,2773,2747,2693,2613,2584,2562,2496,2481,2464,2433,2411,2410,2405,2397,2387,2376,2359,2357,2350,2340,2329,2330,2326,2343,2361,2434,2635,2896,3134,3184,3249,3239,3167,3134,3048,3003,2970,2955,2946,2917,2912,2887,2880,2841,2825,2760,2738,2662,2613,2554,2495,2466,2462,2445,2443,2437,2424,2401,2396,2385,2364,2355,2343,2341,2335,2333,2331,2333,2337,2337,2363,2417,2457,2663,2841,2933,3028,3287,3298,3206,3114,3087,3068,3016,3008,2988,2978,2974,2948,2942,2928,2886,2816,2793,2762,2682,2602,2581,2557,2508,2472,2467,2457,2448,2443,2440,2434,2428,2421,2420,2404,2402,2392,2384,2382,2367,2361,2356,2357,2354,2361,2360,2364,2388,2415,2557,2632,2896,2997,3244,3340,3361,3241,3168,3107,3040,3016,2997,2977,2967,2929,2859,2834,2803,2682,2604,2579,2513,2485,2476,2464,2458,2451,2443,2427,2423,2402,2369,2361,2348,2335,2337,2368,2499,2563,2640,2894,2980,3054,3203,3212,3194,3165,3042,2969,2948,2910,2882,2878,2869,2853,2841,2833,2782,2716,2687,2665,2585,2521,2501,2487,2445,2422,2412,2399,2391,2385,2385,2370,2369,2351,2343,2337,2325,2331,2340,2363,2491,2559,2798,2886,3104,3154,3183,3180,3133,3109,3081,3021,3002,2971,2958,2936,2909,2890,2857,2781,2754,2686,2659,2639,2577,2535,2520,2512,2486,2474,2467,2465,2449,2430,2427,2402,2394,2372,2362,2358,2352,2355,2375,2404,2438,2616,2854,2939,3013,3174,3200,3190,3169,3101,3077,3026,3010,2981,2969,2960,2925,2891,2875,2831,2810,2748,2723,2658,2592,2544,2527,2504,2496,2470,2456,2440,2419,2399,2374,2361,2356,2352,2359,2390,2508,2714,3013,3066,3150,3101,3052,2983,2943,2932,2914,2906,2903,2883,2842,2788,2702,2684,2620,2573,2548,2517,2504,2493,2472,2463,2446,2444,2437,2424,2417,2412,2418,2427,2524,2699,2840,3031,3071,3122,3112,3059,3033,2970,2950,2912,2900,2893,2866,2849,2839,2812,2761,2700,2675,2628,2607,2545,2530,2484,2476,2451,2448,2434,2434,2423,2420,2405,2403,2386,2376,2364,2349,2348,2397,2605,2677,2906,3074,3107,3123,3109,3091,3072,3009,2966,2954,2947,2921,2892,2886,2856,2815,2777,2711,2647,2624,2607,2544,2521,2494,2479,2473,2463,2449,2445,2438,2422,2414,2398,2390,2378,2370,2358,2401,2535,2597,2823,2896,3077,3109,3134,3118,3057,3013,2949,2909,2864,2808,2717,2654,2554,2511,2480,2461,2454,2442,2436,2426,2410,2408,2401,2388,2365,2358,2351,2351,2399,2431,2476,2659,2880,3003,3098,3088,3046,2978,2916,2908,2889,2877,2872,2869,2851,2844,2833,2791,2773,2734,2714,2694,2635,2584,2571,2558,2532,2515,2512,2510,2506,2504,2503,2494,2485,2481,2471,2460,2448,2439,2432,2433,2440,2501,2653,2719,2945,3016,3081,3200,3215,3189,3141,3068,3043,3009,2996,2969,2965,2953,2951,2937,2930,2917,2875,2813,2790,2766,2702,2647,2631,2617,2588,2580,2566,2562,2554,2543,2539,2533,2516,2503,2481,2463,2456,2453,2460,2546,2596,2657,2875,2953,3091,3144,3185,3220,3168,3140,3114,3037,3018,3001,2963,2936,2930,2923,2905,2860,2842,2782,2709,2686,2662,2598,2579,2563,2523,2499,2492,2486,2474,2465,2461,2449,2444,2431,2426,2409,2397,2393,2455,2614,2686,2849,2931,3011,3187,3216,3222,3203,3122,3094,3024,3007,2968,2942,2918,2889,2877,2830,2739,2714,2637,2568,2529,2483,2454,2441,2427,2425,2421,2410,2396,2392,2387,2373,2358,2354,2350,2342,2377,2410,2453,2724,2806,3030,3151,3161,3159,3072,2992,2969,2919,2887,2877,2869,2832,2795,2764,2702,2678,2605,2580,2511,2441,2408,2401,2387,2384,2378,2376,2370,2367,2365,2353,2344,2341,2339,2361,2465,2656,2881,2949,3007,3101,3037,2919,2852,2818,2789,2746,2691,2625,2605,2548,2506,2494,2485,2465,2461,2456,2452,2448,2447,2444,2435,2417,2412,2405,2413,2429,2544,2598,2795,2921,3039,3044,3029,2972,2925,2911,2902,2871,2847,2837,2831,2793,2750,2736,2678,2659,2599,2584,2537,2526,2497,2492,2476,2475,2465,2464,2452,2450,2435,2433,2427,2416,2411,2403,2400,2433,2546,2741,2956,3127,3131,3115,3058,3037,2991,2978,2968,2939,2911,2892,2860,2801,2783,2721,2638,2621,2572,2561,2547,2521,2502,2499,2493,2486,2478,2469,2465,2458,2443,2425,2421,2415,2408,2399,2399,2397,2429,2454,2493,2662,2888,2959,3079,3166,3145,3128,3060,3009,2994,2984,2950,2942,2929,2909,2900,2867,2829,2795,2714,2648,2630,2573,2559,2542,2510,2485,2482,2474,2466,2459,2452,2444,2429,2413,2406,2401,2397,2390,2391,2388,2422,2594,2657,2884,2955,3024,3147,3155,3136,3116,3037,2977,2960,2951,2925,2906,2885,2879,2865,2819,2752,2732,2706,2639,2578,2548,2518,2502,2487,2482,2472,2473,2467,2459,2452,2449,2433,2422,2415,2414,2416,2484,2529,2708,2927,2991,3050,3144,3154,3119,3099,3023,3001,2942,2930,2895,2889,2868,2865,2843,2835,2790,2775,2710,2690,2665,2607,2586,2545,2532,2511,2504,2497,2495,2495,2492,2488,2483,2472,2463,2453,2464,2546,2718,2857,3041,3085,3132,3134,3130,3069,2997,2972,2954,2898,2862,2849,2841,2812,2807,2794,2763,2710,2693,2668,2605,2540,2525,2505,2466,2436,2433,2423,2409,2411,2400,2393,2386,2385,2369,2359,2352,2354,2377,2496,2626,2856,3108,3163,3115,3016,2974,2961,2919,2913,2880,2876,2864,2848,2843,2802,2791,2731,2714,2643,2625,2562,2549,2529,2495,2465,2463,2454,2446,2438,2432,2424,2417,2409,2402,2395,2389,2382,2384,2426,2557,2692,2924,3133,3142,3079,3045,3020,2941,2897,2881,2874,2847,2844,2834,2816,2777,2766,2744,2684,2611,2550,2491,2456,2439,2419,2414,2413,2408,2396,2390,2383,2384,2366,2355,2352,2364,2445,2624,2694,2775,2986,3043,3119,3124,3079,3061,2987,2969,2917,2909,2895,2877,2859,2857,2846,2820,2800,2749,2723,2664,2638,2590,2571,2542,2529,2517,2504,2499,2495,2495,2488,2483,2473,2473,2471,2510,2587,2645,2835,3035,3079,3120,3153,3119,3094,3078,3017,2984,2971,2956,2955,2949,2906,2867,2789,2686,2622,2564,2556,2531,2514,2501,2499,2480,2480,2463,2462,2441,2427,2435,2535,2709,2782,3026,3091,2985,2889,2846,2816,2790,2762,2693,2624,2606,2580,2526,2468,2454,2436,2420,2415,2414,2402,2404,2396,2391,2375,2376,2368,2381,2407,2533,2750,2824,2906,3037,3135,3125,3048,2977,2942,2900,2896,2882,2867,2841,2837,2820,2783,2718,2700,2671,2611,2550,2538,2518,2490,2463,2464,2454,2451,2444,2447,2434,2428,2418,2419,2401,2394,2385,2386,2381,2491,2551,2762,2849,3061,3119,3181,3183,3115,3092,3036,2949,2920,2878,2848,2844,2805,2797,2736,2721,2695,2632,2552,2530,2494,2461,2460,2450,2443,2429,2432,2424,2411,2404,2395,2379,2366,2385,2400,2435,2669,2909,2991,3156,3196,3199,3180,3162,3037,2979,2910,2869,2863,2847,2829,2774,2663,2588,2538,2519,2491,2479,2479,2463,2462,2457,2461,2453,2453,2446,2449,2434,2435,2432,2434,2454,2558,2682,2916,3111,3183,3192,3084,2986,2965,2902,2893,2877,2861,2844,2845,2815,2806,2784,2700,2633,2604,2547,2494,2487,2471,2446,2444,2435,2435,2429,2428,16
2925,2877,2820,2769,2753,2732,2716,2719,2733,2753,2770,2777,2773,2754,2734,2699,2684,2659,2644,2590,2560,2547,2536,2528,2525,2521,2508,2504,2510,2509,2526,2571,2598,2641,2774,2826,2908,2934,2960,2961,2951,2907,2875,2797,2754,2719,2734,2752,2768,2774,2765,2750,2741,2721,2668,2608,2579,2552,2540,2531,2518,2515,2509,2511,2506,2554,2657,2808,2903,2990,2961,2878,2775,2762,2788,2780,2740,2676,2660,2600,2588,2562,2548,2543,2532,2524,2514,2517,2514,2509,2500,2512,2582,2615,2662,2806,2943,2970,2994,2990,2930,2872,2789,2750,2741,2744,2757,2773,2786,2722,2664,2597,2583,2534,2513,2499,2499,2491,2485,2488,2482,2479,2481,2468,2469,2472,2489,2572,2618,2863,2963,2969,2963,2951,2870,2843,2808,2741,2722,2717,2713,2752,2764,2772,2766,2742,2722,2667,2603,2567,2556,2532,2518,2515,2506,2497,2487,2483,2478,2475,2503,2600,2791,2881,2955,2948,2926,2872,2845,2810,2712,2694,2694,2705,2736,2754,2762,2726,2673,2649,2632,2574,2538,2524,2509,2497,2482,2494,2654,2795,2919,2962,2961,2904,2880,2790,2766,2710,2705,2706,2738,2754,2749,2718,2656,2598,2563,2519,2488,2469,2469,2548,2678,2830,2954,2975,2988,2973,2957,2930,2848,2774,2748,2746,2766,2782,2789,2757,2743,2661,2598,2583,2528,2516,2501,2493,2487,2482,2483,2478,2472,2478,2484,2557,2591,2738,2787,2960,3002,2960,2882,2799,2758,2750,2761,2772,2786,2786,2790,2756,2697,2615,2580,2551,2528,2509,2491,2483,2464,2461,2510,2537,2616,2667,2715,2768,2902,2968,2966,2928,2901,2819,2790,2737,2718,2727,2755,2764,2752,2744,2694,2677,2655,2600,2553,2543,2515,2511,2497,2492,2487,2486,2477,2479,2501,2587,2719,2865,2902,2936,2969,2970,2933,2906,2794,2739,2725,2735,2781,2774,2766,2716,2675,2618,2584,2568,2558,2530,2519,2512,2504,2505,2518,2535,2620,2663,2756,2853,2894,2981,2980,2966,2941,2886,2826,2756,2740,2728,2741,2748,2759,2783,2778,2750,2731,2675,2652,2578,2551,2529,2523,2503,2494,2491,2492,2498,2528,2622,2669,2771,2823,2877,2922,3018,3031,3022,3009,2985,2869,2796,2766,2753,2773,2777,2786,2780,2773,2730,2671,2649,2630,2576,2548,2539,2527,2520,2502,2495,2493,2488,2490,2616,2763,2909,2995,2990,2923,2833,2766,2749,2741,2736,2748,2767,2760,2751,2684,2620,2601,2580,2534,2521,2501,2495,2480,2480,2478,2474,2475,2469,2469,2469,2481,2517,2673,2830,2877,2919,2975,2990,2946,2919,2859,2828,2756,2741,2727,2731,2761,2770,2786,2784,2753,2694,2631,2610,2562,2527,2520,2503,2495,2487,2484,2489,2498,2570,2606,2747,2798,2958,2986,2975,2874,2780,2753,2705,2700,2707,2716,2725,2744,2745,2723,2710,2656,2638,2582,2567,2538,2527,2519,2497,2493,2480,2477,2472,2475,2514,2543,2670,2781,2943,3048,2973,2853,2780,2783,2798,2791,2750,2685,2617,2546,2533,2504,2486,2484,2476,2474,2475,2499,2553,2741,2902,2984,3028,2987,2961,2900,2813,2759,2746,2763,2779,2773,2766,2753,2737,2675,2627,2582,2526,2511,2471,2464,2454,2449,2447,2444,2443,2444,2460,2500,2573,2618,2781,2887,2993,3004,2988,2965,2906,2809,2742,2730,2724,2749,2758,2772,2768,2736,2719,2656,2592,2541,2506,2493,2482,2475,2472,2472,2503,2597,2692,2896,2990,3001,2992,2951,2922,2820,2789,2702,2714,2746,2762,2741,2691,2626,2605,2537,2505,2497,2478,2475,2469,2470,2489,2508,2534,2713,2882,2931,3009,3041,2988,2890,2856,2824,2755,2742,2735,2738,2745,2772,2780,2785,2780,2772,2743,2656,2610,2536,2512,2489,2478,2470,2477,2529,2561,2702,2930,2978,3065,3021,2993,2926,2827,2766,2752,2763,2787,2791,2785,2742,2721,2653,2630,2568,2551,2510,2500,2476,2463,2472,2576,2670,2834,2968,3013,2977,2949,2916,2782,2719,2708,2712,2721,2737,2715,2700,2683,2641,2578,2558,2541,2485,2458,2451,2446,2434,2441,2474,2579,2733,2889,2981,2991,2963,2911,2882,2849,2767,2748,2726,2724,2726,2750,2759,2775,2773,2766,2725,2664,2603,2555,2521,2493,2491,2498,2512,2597,2686,2839,2983,2992,2978,2867,2778,2756,2740,2721,2721,2742,2749,2755,2754,2749,2710,2692,2634,2615,2564,2525,2499,2485,2481,2490,2504,2527,2638,2688,2936,3010,2998,2979,2928,2900,2872,2802,2787,2763,2763,2772,2768,2762,2753,2739,2663,2642,2579,2528,2513,2480,2470,2452,2447,2470,2521,2557,2597,2744,2794,2915,2939,2944,2880,2826,2758,2728,2727,2742,2749,2767,2767,2744,2729,2638,2614,2588,2516,2477,2451,2440,2428,2452,2474,2573,2616,2706,2855,2885,2848,2824,2744,2680,2656,2667,2675,2693,2685,2676,2634,2561,2544,2528,2487,2476,2467,2499,2558,2597,2735,2862,2892,2918,2861,2834,2731,2686,2697,2703,2708,2707,2677,2663,2608,2550,2496,2455,2447,2503,2617,2750,2843,2858,2862,2829,2697,2641,2632,2662,2640,2579,2510,2455,2431,2447,2466,2563,2605,2736,2807,2854,2826,2779,2659,2628,2635,2643,2659,2667,2648,2606,2589,2540,2526,2478,2470,2465,2465,2624,2800,2884,2895,2876,2808,2781,2710,2672,2669,2669,2684,2691,2697,2705,2704,2682,2669,2654,2607,2591,2560,2546,2512,2498,2507,2523,2545,2612,2696,2827,2922,2923,2887,2843,2770,2723,2709,2715,2725,2717,2685,2638,2590,2554,2543,2522,2515,2503,2502,2535,2718,2850,2936,2948,2860,2788,2738,2730,2722,2721,2738,2743,2720,2695,2664,2632,2618,2603,2591,2558,2543,2537,2531,2527,2515,2512,2511,2508,2505,2495,2490,2487,2489,2550,2628,2728,2883,2982,2988,2974,2902,2825,2774,2761,2772,2780,2786,2794,2772,2761,2710,2694,2641,2628,2613,2580,2557,2553,2547,2539,2530,2525,2514,2494,2490,2497,2570,2607,2746,2841,2938,2950,2891,2810,2761,2726,2714,2739,2757,2768,2747,2735,2719,2686,2594,2565,2539,2533,2518,2508,2546,2649,2784,2903,2945,2935,2896,2816,2726,2704,2708,2735,2769,2777,2755,2739,2690,2637,2623,2583,2574,2551,2548,2535,2534,2524,2524,2562,2584,2694,2827,2871,2956,2968,2968,2882,2733,2715,2733,2768,2790,2787,2764,2747,2695,2673,2620,2602,2590,2551,2530,2522,2520,2507,2525,2596,2727,2874,2922,3009,3022,3020,2950,2890,2805,2749,2744,2748,2758,2789,2807,2802,2786,2743,2683,2666,2612,2571,2549,2520,2516,2513,2525,2597,2638,2777,2875,2984,3005,2997,2928,2839,2785,2736,2731,2754,2780,2771,2756,2722,2625,2605,2558,2542,2513,2502,2489,2490,2534,2635,2777,2900,2958,2955,2948,2879,2786,2729,2675,2672,2701,2734,2734,2728,2685,2671,2612,2597,2544,2533,2495,2488,2476,2473,2467,2521,2549,2590,2779,2868,2901,2953,2918,2896,2865,2774,2744,2689,2679,2688,2695,2709,2738,2747,2730,2702,2681,2626,2605,2590,2537,2505,2494,2513,2538,2639,2828,2874,2907,2964,2931,2879,2786,2694,2681,2687,2729,2742,2735,2714,2667,2591,2558,2512,2506,2514,2572,2849,2967,2985,2989,2918,2890,2794,2735,2719,2717,2721,2747,2749,2755,2737,2673,2658,2558,2546,2518,2489,2489,2504,2580,2723,2774,2958,3009,3002,2913,2821,2747,2722,2737,2747,2720,2710,2653,2612,2563,2511,2481,2477,2466,2459,2475,2498,2520,2648,2851,2890,2970,2936,2907,2823,2745,2733,2716,2711,2710,2731,2729,2724,2710,2666,2642,2585,2561,2517,2464,2464,2450,2454,2446,2450,2439,2440,2436,2480,2518,2655,2716,2878,2927,2957,2999,2925,2783,2747,2739,2760,2762,2743,2724,2645,2587,2565,2524,2507,2479,2480,2470,2474,2470,2474,2465,2458,2453,2498,2607,2875,2970,2986,2984,2940,2820,2788,2745,2722,2717,2727,2760,2763,2763,2749,2720,2682,2665,2600,2554,2538,2514,2505,2496,2498,2493,2488,2487,2481,2479,2477,2527,2553,2596,2742,2802,2988,3003,2927,2830,2808,2749,2760,2776,2782,2764,2755,2698,2681,2654,2597,2575,2535,2519,2490,2487,2481,2485,2477,2476,2471,2469,2486,2566,2617,2785,2972,3061,3101,3097,3024,2930,2894,2826,2806,2801,2788,2798,2805,2811,2787,2779,2714,2697,2620,2604,2542,2533,2495,2482,2476,2471,2469,2465,2453,2447,2438,2439,2448,2538,2579,2765,2826,3008,3044,3086,3020,2981,2882,2847,2825,2772,2772,2782,2790,2745,2674,2608,2526,2482,2464,2447,2451,2445,2448,2446,2444,2437,2434,2417,2411,2416,2453,2585,2640,2851,2914,2981,3028,3115,3082,2989,2913,2814,2766,2772,2791,2820,2816,2818,2779,2718,2688,2667,2575,2503,2487,2483,2476,2461,2486,2517,2696,2872,2936,3048,3070,3045,2916,2812,2778,2761,2724,2746,2752,2769,2787,2781,2744,2672,2653,2579,2507,2473,2462,2460,2477,2576,2619,2806,2935,3074,3105,3103,3028,2951,2837,2760,2762,2771,2787,2815,2789,2779,2705,2632,2555,2510,2474,2475,2459,2463,2452,2451,2465,2527,2572,2799,2978,3095,3074,2966,2853,2766,2756,2743,2757,2764,2803,2806,2813,2789,2732,2702,2680,2596,2534,2513,2502,2465,2463,2454,2450,2444,2442,2485,2593,2772,2950,3036,3078,3014,2983,2903,2763,2712,2726,2734,2753,2781,2784,2770,2717,2689,2615,2585,2525,2504,2494,2458,2456,2440,2437,2431,2430,2437,2490,2573,2753,2992,3073,3053,3022,2992,2867,2833,2732,2721,2762,2794,2782,2747,2728,2646,2595,2552,2538,2493,2487,2475,2464,2456,2453,2448,2479,2572,2739,2922,3060,3077,3074,3047,3020,2902,2867,2771,2757,2738,2772,2782,2799,2811,2785,2761,2743,2659,2558,2519,2482,2469,2463,2445,2451,2458,2546,2589,2776,2841,2912,3076,3133,3119,3018,2979,2856,2825,2761,2756,2763,2794,2797,2766,2638,2562,2483,2443,2436,2426,2411,2407,2429,2449,2574,2696,2897,3055,3092,3008,2974,2932,2826,2797,2746,2767,2779,2776,2724,2650,2620,2543,2519,2466,2450,2425,2418,2416,2404,2404,2396,2398,2423,2451,2582,2644,2844,3015,3075,3031,2997,2883,2783,2736,2734,2762,2767,2768,2756,2702,2675,2594,2565,2495,2473,2431,2412,2393,2384,2385,2376,2371,2390,2489,2661,2864,3009,3043,2976,2944,2830,2799,2731,2724,2725,2735,2764,2772,2772,2753,2735,2669,2641,2567,2543,2524,2474,2447,2440,2436,2428,2425,2422,2421,2411,2422,2603,2905,3028,2866,2768,2725,2761,2787,2785,2744,2723,2626,2543,2527,2495,2477,2474,20
2749,2730,2726,2685,2664,2549,2506,2407,2355,2311,2154,2121,2074,2057,1991,1965,1983,2136,2232,2601,2746,3123,3214,3295,3253,3062,2838,2637,2580,2565,2553,2497,2464,2357,2238,2207,2172,2099,2077,2064,2024,1993,1981,1975,1992,2028,2230,2333,2685,3007,3075,3126,3124,2976,2907,2843,2669,2632,2599,2574,2620,2645,2634,2540,2475,2382,2310,2296,2256,2250,2220,2207,2242,2483,2781,2889,3133,3207,3186,3154,2981,2799,2745,2708,2643,2645,2676,2697,2728,2722,2666,2500,2421,2398,2356,2320,2314,2302,2321,2486,2571,2909,3028,3250,3464,3437,3227,3051,2999,2925,2879,2860,2857,2860,2849,2821,2743,2706,2596,2527,2467,2439,2397,2339,2330,2292,2262,2258,2269,2394,2476,2572,2942,3073,3406,3474,3541,3435,3261,3095,2984,2956,2907,2896,2879,2842,2765,2734,2575,2458,2425,2342,2321,2285,2269,2257,2209,2174,2170,2274,2344,2659,3044,3162,3260,3419,3366,3317,3256,3061,2900,2863,2830,2781,2774,2773,2770,2767,2723,2634,2596,2481,2443,2322,2267,2252,2224,2217,2200,2192,2186,2170,2172,2277,2551,2672,2805,3194,3432,3456,3455,3244,2999,2927,2767,2719,2713,2727,2781,2799,2810,2781,2639,2597,2474,2380,2357,2292,2246,2246,2269,2310,2546,2914,3046,3172,3441,3475,3436,3380,3145,2903,2744,2687,2707,2721,2734,2743,2733,2686,2654,2534,2491,2377,2318,2256,2242,2219,2200,2171,2172,2198,2244,2513,2949,3109,3265,3622,3718,3692,3643,3327,2959,2824,2788,2757,2681,2558,2420,2297,2208,2183,2136,2096,2086,2065,2065,2079,2328,2734,2897,3362,3485,3666,3664,3510,3248,3155,3071,2820,2725,2718,2716,2718,2714,2650,2541,2495,2357,2197,2165,2080,2048,2039,2025,2018,2003,2000,2123,2440,2582,3076,3234,3582,3643,3466,3078,2834,2707,2689,2686,2721,2776,2776,2719,2644,2511,2381,2313,2246,2206,2200,2190,2168,2226,2354,2688,3266,3601,3542,3469,3063,2771,2695,2575,2564,2571,2676,2743,2751,2708,2598,2551,2509,2348,2263,2244,2187,2358,2724,3205,3628,3784,3677,3269,3154,2869,2705,2684,2670,2700,2714,2751,2746,2687,2647,2513,2462,2330,2258,2179,2116,2108,2122,2570,3073,3253,3694,3864,3847,3807,3447,3125,3037,2835,2800,2752,2760,2769,2760,2713,2585,2540,2486,2344,2224,2198,2169,2117,2074,2065,2080,2231,2599,2754,3264,3413,3544,3689,3451,3343,3026,2739,2662,2664,2685,2698,2689,2676,2648,2536,2390,2347,2300,2193,2117,2087,2043,2072,2286,2399,2852,3015,3454,3546,3633,3593,3347,3232,2902,2804,2619,2586,2594,2614,2702,2718,2732,2692,2662,2616,2516,2356,2302,2261,2151,2067,2056,2024,2098,2158,2249,2628,3109,3252,3382,3573,3574,3534,3287,2819,2714,2513,2472,2564,2667,2706,2690,2600,2453,2408,2358,2247,2213,2190,2142,2469,2922,3403,3539,3738,3545,3446,2978,2869,2786,2620,2609,2622,2700,2726,2720,2695,2586,2430,2385,2333,2191,2134,2113,2201,2279,2678,3207,3680,3780,3868,3819,3559,3445,3006,2803,2721,2737,2756,2760,2699,2579,2420,2235,2145,2073,2062,2052,2087,2324,2461,2609,3313,3703,3758,3726,3650,3455,3124,2850,2684,2682,2685,2697,2678,2539,2485,2334,2190,2156,2061,1987,1976,1958,1972,2277,2920,3094,3527,3621,3555,3254,2897,2801,2711,2561,2545,2567,2586,2651,2654,2621,2585,2454,2398,2254,2206,2110,2083,2038,2022,1995,1987,2128,2615,2782,3111,3386,3477,3555,3339,3105,2753,2481,2459,2514,2639,2682,2728,2722,2618,2571,2399,2295,2181,2086,2072,2079,2197,2540,2687,3192,3578,3650,3676,3562,3465,3359,2976,2668,2594,2550,2507,2589,2651,2668,2672,2567,2524,2362,2163,2132,2078,2059,2136,2457,2610,3165,3662,3785,3861,3874,3621,3292,2985,2915,2779,2763,2764,2786,2776,2715,2670,2521,2406,2248,2209,2107,2086,2012,2048,2110,2614,3170,3356,3753,3824,3770,3699,3600,3265,2955,2883,2736,2709,2723,2718,2696,2596,2544,2435,2382,2322,2176,2060,2035,2007,1932,1918,1935,2151,2272,2424,3142,3569,3648,3638,3373,3250,3131,2719,2570,2557,2579,2603,2650,2655,2596,2562,2513,2295,2109,2045,1984,1936,1956,2172,2286,2741,3068,3419,3355,3023,2906,2592,2440,2424,2484,2518,2628,2645,2638,2574,2425,2278,2159,2063,2055,2183,2385,2828,3436,3537,3596,3615,3506,3200,2767,2687,2551,2596,2617,2676,2647,2620,2579,2438,2287,2206,2122,2080,2046,2363,2836,3386,3819,3761,3488,3152,3056,2966,2790,2726,2728,2730,2744,2709,2649,2465,2323,2278,2177,2065,2057,2118,2276,2688,3190,3578,3671,3562,3479,3166,3063,2801,2661,2637,2628,2633,2645,2636,2624,2499,2271,2164,2066,2046,2005,2035,2159,2375,2666,3288,3483,3532,3542,3397,3085,2976,2870,2638,2553,2564,2588,2640,2687,2675,2656,2590,2502,2365,2200,2175,2120,2117,2148,2362,2742,2886,3031,3365,3448,3342,2931,2819,2559,2454,2454,2468,2564,2597,2658,2643,2545,2359,2236,2202,2124,2106,2136,2184,2470,2604,3062,3207,3512,3548,3475,3399,3098,2992,2895,2670,2581,2584,2630,2643,2626,2482,2342,2259,2166,2084,2068,2070,2101,2337,2765,2931,3096,3501,3612,3563,3314,3025,2810,2702,2688,2686,2695,2690,2679,2567,2349,2237,2121,2076,2061,2080,2266,2651,3132,3502,3569,3565,3343,3246,3148,2886,2821,2726,2697,2680,2675,2684,2690,2695,2677,2519,2389,2218,2157,2091,2070,2092,2302,2416,2864,3026,3443,3528,3580,3532,3274,3060,2791,2656,2638,2688,2762,2707,2674,2496,2408,2332,2248,2201,2189,2182,2162,2143,2135,2132,2181,2236,2311,2817,3281,3410,3627,3246,2728,2597,2669,2782,2835,2820,2711,2563,2513,2469,2360,2296,2280,2268,2226,2269,2324,2615,2753,3211,3359,3658,3695,3604,3522,3192,3076,2962,2708,2603,2602,2610,2733,2736,2654,2609,2466,2416,2374,2298,2264,2199,2181,2145,2132,2135,2294,2686,3387,3853,3826,3759,3343,3022,2940,2778,2741,2745,2757,2779,2780,2751,2721,2688,2544,2494,2439,2257,2145,2130,2085,2054,2046,2113,2534,2692,3230,3396,3546,3797,3533,3196,2910,2838,2786,2705,2722,2731,2746,2744,2675,2590,2539,2392,2260,2229,2149,2135,2092,2071,2045,2078,2205,2583,3093,3267,3645,3727,3595,3498,3162,2849,2777,2715,2641,2699,2718,2757,2735,2631,2487,2386,2259,2179,2157,2146,2114,2095,2084,2082,2130,2188,2489,2635,3116,3602,3624,3369,2998,2669,2511,2521,2645,2685,2770,2708,2663,2514,2459,2412,2286,2209,2186,2173,2137,2207,2268,2359,2743,3229,3505,3686,3481,3376,3002,2889,2625,2546,2561,2652,2706,2719,2694,2624,2529,2383,2259,2232,2203,2156,2119,2115,2110,2213,2540,2703,2877,3576,3932,3886,3642,3006,2827,2786,2808,2822,2810,2728,2679,2633,2462,2314,2268,2236,2151,2105,2078,2054,2169,2509,3041,3224,3697,3875,3865,3814,3447,2972,2824,2793,2801,2788,2695,2487,2435,2269,2151,2093,2029,1995,1978,1973,1987,2033,2303,2449,2959,3143,3571,3658,3673,3530,3206,2806,2663,2655,2651,2733,2777,2767,2691,2594,2425,2287,2244,2166,2142,2105,2066,2209,2422,2878,3453,3587,3432,3325,3214,2849,2591,2511,2526,2562,2595,2702,2695,2658,2519,2353,2309,2261,2169,2107,2098,2080,2091,2262,2375,2502,3003,3175,3349,3703,3739,3597,3252,2817,2750,2631,2651,2667,2694,2726,2725,2641,2546,2388,2241,2169,2104,2083,2049,2009,2008,2008,2164,2561,2746,2936,3496,3644,3894,3893,3712,3615,3294,3185,2875,2793,2786,2795,2794,2776,2625,2447,2327,2220,2101,2019,2007,1966,1946,1929,1920,1984,2259,2411,2576,3155,3337,3800,3747,3663,3338,2993,2906,2826,2700,2689,2707,2720,2755,2710,2589,2415,2361,2203,2098,2069,2033,2011,1994,1993,1969,2006,2051,2131,2683,2861,3402,3541,3752,3614,3518,3136,3010,2691,2628,2547,2562,2664,2711,2798,2809,2745,2650,2474,2411,2219,2138,2083,2073,2057,2069,2370,2503,3014,3190,3363,3707,3727,3660,3573,3205,2839,2600,2545,2611,2648,2718,2696,2661,2623,2457,2402,2342,2160,2084,2062,1999,1990,2298,2821,3014,3211,3573,3840,3942,3748,3653,3552,3211,2939,2873,2831,2770,2791,2795,2802,2762,2646,2588,2532,2344,2234,2106,2022,2006,1985,1943,1922,1945,1985,2292,2821,3023,3219,3706,3866,3843,3780,3485,3246,2922,2734,2698,2686,2724,2559,2392,2138,2015,1980,1949,2281,3343,3727,3690,3356,3225,3089,2748,2556,2555,2643,2749,2780,2729,2576,2519,2456,2294,2247,2210,2121,2065,2051,2051,2154,2479,2627,2794,3295,3627,3662,3663,3349,2950,2825,2541,2447,2511,2633,2683,2676,2524,2465,2240,2085,1996,2065,2394,2742,3130,3775,3894,3784,3352,3231,3004,2729,2701,2697,2723,2736,2671,2579,2399,2224,2172,2128,2022,1999,1954,1933,1919,1937,1989,2066,2481,3065,3263,3444,3808,3807,3644,3181,2876,2800,2668,2644,2652,2659,2667,2653,2634,2467,2185,1992,1936,1882,2050,3031,3556,3672,3776,3554,3437,3050,2829,2631,2602,2684,2761,2674,2506,2328,2229,2126,2054,2026,2139,2223,2780,3283,3422,3643,3528,3052,2686,2474,2549,2655,2644,2515,2460,2402,2199,2100,2076,2023,2034,2084,2400,2928,3120,3308,3835,3828,3757,3433,3308,3182,2794,2672,2746,2679,2530,2291,2146,2051,2028,1973,1956,1946,2118,2544,3314,3740,3825,3776,3499,3384,3045,2948,2866,2682,2677,2673,2515,2247,2036,1904,1867,1873,2144,2441,2811,3364,3679,3705,3690,3460,3091,2860,2624,2581,2557,2594,2675,2589,2336,2196,2077,2026,1980,1971,2070,2151,2547,3066,3501,3628,3437,3321,2920,2579,2506,2453,2433,2462,2607,2690,2723,2639,2588,2422,2366,2317,2186,2097,2060,2054,2169,2512,2673,3366,3693,3683,3392,2988,2642,2568,2459,2513,2617,2654,2561,2402,2349,2294,2163,2068,2046,2021,1982,2085,2295,2803,3379,3551,3688,3856,3804,3504,3383,3133,2749,2630,2633,2669,2665,2642,2615,2480,2429,2372,2172,2065,2034,1966,1956,1996,2288,2771,2956,3132,3549,3645,3610,3542,3241,3122,2810,2725,2576,2545,2563,2593,2546,2509,2384,2332,2198,2120,2032,2013,1955,1942,1933,2193,2320,2792,3277,3393,3484,3526,3308,3196,3084,2677,2607,2527,2613,2646,2731,2657,2620,2475,2348,2308,2224,2158,2151,18
2261,2387,2458,2642,2751,2866,3096,3200,3292,3463,3482,3488,3430,3398,3323,3284,3247,3173,3139,3050,3023,3000,2957,2900,2837,2754,2723,2690,2623,2589,2493,2465,2437,2392,2372,2325,2314,2303,2280,2265,2257,2245,2235,2232,2227,2218,2214,2212,2207,2195,2193,2249,2420,2502,2595,2909,3184,3246,3294,3343,3335,3319,3267,3238,3147,3117,3089,3008,2939,2920,2901,2864,2847,2787,2765,2740,2656,2597,2567,2540,2486,2419,2400,2369,2356,2326,2318,2300,2292,2281,2272,2268,2261,2258,2253,2246,2243,2239,2235,2225,2222,2218,2218,2223,2260,2294,2470,2549,2637,2827,3006,3145,3224,3244,3125,3096,3011,2968,2931,2880,2854,2811,2792,2771,2700,2626,2602,2581,2523,2482,2453,2439,2434,2429,2416,2407,2402,2399,2390,2377,2363,2357,2341,2341,2356,2379,2591,2670,2935,3219,3258,3298,3278,3258,3233,3206,3119,3041,3016,2993,2937,2901,2888,2876,2833,2815,2750,2726,2651,2627,2582,2561,2542,2495,2482,2452,2444,2425,2420,2410,2400,2395,2383,2370,2366,2362,2351,2336,2331,2377,2523,2595,2862,3208,3268,3363,3369,3364,3334,3286,3232,3205,3178,3100,3076,3028,3006,2987,2951,2916,2881,2843,2774,2696,2643,2550,2530,2468,2446,2422,2404,2384,2376,2365,2361,2357,2347,2343,2341,2330,2322,2329,2401,2511,2755,3037,3257,3302,3347,3326,3244,3179,3086,2967,2921,2853,2746,2635,2533,2456,2416,2391,2384,2376,2370,2364,2361,2354,2346,2342,2325,2331,2541,2882,3133,3197,3281,3300,3290,3269,3245,3186,3122,3034,3009,2944,2927,2912,2874,2849,2834,2818,2798,2702,2619,2591,2493,2437,2422,2379,2360,2356,2345,2341,2338,2328,2321,2318,2314,2310,2301,2296,2283,2282,2285,2394,2593,2676,2943,3024,3199,3230,3257,3254,3245,3211,3164,3088,3062,2990,2967,2904,2886,2837,2821,2786,2766,2746,2677,2653,2628,2556,2493,2475,2459,2429,2416,2386,2379,2371,2358,2348,2338,2335,2331,2323,2319,2315,2313,2302,2292,2286,2281,2306,2366,2534,2850,2928,3105,3176,3180,3175,3132,3114,3093,3035,2999,2948,2920,2907,2873,2848,2806,2769,2706,2643,2622,2566,2550,2509,2497,2487,2468,2461,2442,2436,2422,2418,2406,2402,2398,2388,2377,2373,2370,2368,2368,2389,2411,2534,2594,2732,2810,2888,3089,3171,3210,3180,3096,3077,3023,3009,2995,2967,2960,2944,2936,2918,2906,2859,2839,2818,2773,2705,2646,2597,2583,2571,2542,2527,2511,2502,2494,2490,2487,2482,2479,2469,2466,2461,2448,2446,2460,2478,2505,2588,2775,2917,3046,3139,3169,3189,3187,3153,3132,3108,3084,2995,2925,2918,2903,2896,2858,2842,2778,2756,2708,2663,2641,2585,2568,2532,2520,2498,2486,2482,2479,2466,2461,2453,2440,2436,2431,2416,2409,2418,2434,2549,2825,2981,3160,3199,3240,3243,3212,3192,3173,3127,3103,3044,3026,3011,2985,2966,2942,2935,2915,2869,2806,2731,2709,2661,2597,2547,2532,2498,2487,2463,2456,2444,2433,2421,2419,2413,2400,2381,2370,2355,2355,2416,2578,2733,2990,3239,3271,3292,3247,3221,3196,3117,3093,3068,3008,2962,2950,2913,2885,2828,2754,2728,2644,2618,2522,2435,2402,2376,2360,2343,2331,2315,2310,2301,2295,2286,2282,2292,2307,2337,2488,2733,2825,2920,3160,3297,3300,3248,3121,3089,3004,2929,2907,2885,2866,2818,2777,2728,2649,2570,2548,2525,2453,2418,2407,2388,2381,2378,2364,2349,2347,2330,2318,2311,2308,2296,2338,2368,2471,2705,3060,3230,3260,3273,3219,3118,3010,2952,2898,2871,2870,2856,2826,2763,2649,2561,2530,2461,2438,2379,2357,2340,2339,2334,2332,2329,2321,2317,2311,2310,2319,2412,2472,2806,3092,3177,3334,3362,3293,3190,3059,3030,2965,2933,2892,2852,2833,2771,2690,2665,2635,2531,2469,2449,2409,2396,2390,2377,2362,2353,2350,2346,2335,2330,2318,2317,2304,2338,2373,2551,2638,2942,3051,3242,3377,3417,3455,3363,3327,3227,3133,3108,3034,3016,2995,2946,2867,2840,2758,2634,2602,2524,2497,2442,2422,2386,2372,2350,2340,2331,2324,2325,2320,2311,2308,2299,2296,2290,2278,2318,2404,2637,2732,2945,3148,3365,3400,3431,3409,3333,3295,3198,3162,3077,3044,2971,2899,2854,2786,2757,2708,2638,2569,2554,2499,2416,2379,2335,2304,2274,2262,2252,2256,2256,2261,2258,2279,2370,2431,2498,2671,2875,3079,3173,3247,3388,3398,3370,3337,3264,3229,3184,3078,2990,2975,2955,2929,2918,2903,2898,2881,2831,2804,2727,2693,2635,2581,2558,2490,2430,2422,2396,2387,2380,2381,2369,2370,2355,2354,2347,2352,2362,2426,2542,2806,2903,3100,3264,3398,3405,3369,3261,3225,3181,3070,2972,2952,2926,2881,2865,2857,2830,2796,2721,2697,2636,2574,2481,2459,2413,2376,2331,2325,2310,2298,2290,2288,2280,2283,2277,2274,2266,2259,2260,2261,2282,2410,2487,2569,2890,3206,3414,3463,3455,3409,3268,3193,3082,3017,2991,2959,2896,2872,2818,2792,2744,2629,2539,2447,2426,2356,2289,2256,2235,2223,2211,2214,2204,2207,2199,2195,2189,2203,2217,2361,2733,2840,3164,3359,3395,3405,3386,3355,3331,3228,3137,3102,3077,2988,2924,2898,2883,2815,2746,2713,2688,2590,2504,2452,2381,2368,2321,2301,2284,2264,2249,2251,2244,2239,2224,2226,2210,2211,2197,2203,2204,2283,2329,2471,2660,2986,3080,3242,3341,3379,3363,3321,3299,3265,3177,3143,3084,3062,3031,3009,2924,2889,2865,2807,2723,2639,2582,2527,2480,2455,2440,2391,2350,2348,2335,2324,2323,2314,2295,2284,2276,2267,2252,2253,2247,2242,2232,2240,2246,2337,2386,2457,2626,2826,3117,3201,3317,3373,3340,3253,3165,3106,3004,2943,2930,2876,2863,2795,2775,2692,2668,2584,2536,2479,2457,2420,2399,2371,2360,2351,2345,2337,2331,2324,2320,2312,2309,2303,2299,2294,2313,2329,2459,2683,2968,3200,3256,3323,3292,3262,3236,3130,3043,3015,2997,2946,2922,2906,2863,2823,2751,2663,2639,2607,2541,2483,2455,2431,2406,2397,2391,2379,2381,2374,2372,2365,2366,2351,2344,2340,2350,2419,2602,2679,2772,3047,3265,3304,3337,3341,3277,3242,3214,3149,3089,3058,2990,2934,2925,2870,2809,2790,2706,2648,2592,2569,2540,2478,2457,2417,2402,2380,2371,2359,2344,2339,2329,2325,2319,2315,2303,2299,2314,2340,2476,2727,2822,2927,3199,3365,3383,3395,3357,3279,3186,3130,3059,2991,2941,2921,2866,2793,2769,2738,2680,2624,2547,2521,2465,2419,2398,2377,2366,2350,2334,2334,2320,2312,2307,2307,2297,2293,2289,2291,2294,2299,2318,2341,2500,2765,2976,3263,3421,3446,3398,3266,3165,3137,3059,3039,3017,2971,2923,2908,2843,2766,2673,2559,2456,2410,2369,2351,2343,2336,2336,2324,2324,2313,2313,2304,2300,2294,2293,2350,2520,2599,3009,3295,3358,3458,3419,3391,3351,3232,3088,3035,2981,2954,2942,2910,2891,2874,2827,2796,2706,2672,2643,2554,2529,2464,2448,2422,2408,2386,2379,2377,2369,2366,2367,2363,2363,2355,2354,2338,2335,2347,2447,2508,2762,2867,3077,3174,3263,3428,3450,3394,3267,3177,3059,2977,2960,2946,2923,2902,2892,2878,2815,2758,2695,2598,2517,2454,2412,2393,2375,2361,2352,2342,2325,2312,2412,2628,3181,3535,3520,3368,3209,3117,3047,2982,2950,2886,2802,2705,2672,2609,2579,2553,2481,2462,2445,2403,2393,2368,2362,2345,2341,2330,2327,2318,2312,2303,2295,2292,2281,2300,2420,2573,2894,3235,3330,3511,3533,3512,3483,3411,3329,3214,3179,3117,3019,2962,2908,2885,2835,2806,2711,2678,2643,2549,2470,2448,2427,2395,2368,2340,2320,2311,2299,2295,2288,2274,2265,2255,2254,2245,2242,2293,2464,2762,3122,3229,3471,3538,3530,3442,3405,3282,3206,3139,3111,3032,3011,2988,2931,2888,2809,2717,2681,2649,2551,2469,2443,2390,2351,2328,2312,2311,2298,2290,2284,2283,2274,2266,2252,2250,2239,2233,2226,2229,2241,2329,2553,2653,2768,2884,3319,3491,3507,3465,3338,3293,3119,3024,3004,2984,2950,2939,2931,2893,2801,2710,2675,2583,2551,2527,2480,2457,2412,2376,2357,2338,2325,2324,2318,2310,2296,2294,2287,2273,2263,2324,2603,2937,3359,3509,3518,3465,3336,3201,3083,2998,2957,2911,2900,2848,2802,2777,2746,2649,2613,2582,2516,2460,2410,2388,2372,2328,2309,2295,2284,2269,2258,2249,2236,2232,2308,2523,2994,3353,3578,3607,3617,3570,3456,3408,3285,3244,3146,3111,3060,3039,3015,2998,2931,2858,2824,2685,2581,2516,2431,2389,2347,2309,2290,2283,2271,2263,2245,2235,2225,2217,2209,2202,2197,2192,2200,2220,2349,2430,2520,2879,3258,3368,3599,3601,3544,3502,3417,3327,3207,3134,3037,3015,2969,2943,2926,2857,2781,2746,2718,2651,2613,2583,2520,2486,2462,2353,2317,2298,2275,2266,2259,2252,2239,2234,2230,2224,2220,2221,2217,2222,2222,2292,2337,2690,2937,3070,3189,3306,3484,3577,3564,3447,3390,3284,3240,3188,3081,3048,3005,2978,2971,2936,2926,2863,2839,2737,2704,2593,2561,2468,2447,2385,2352,2324,2316,2311,2299,2299,2293,2290,2280,2265,2264,2292,2321,2520,2613,2973,3098,3225,3504,3611,3603,3588,3470,3427,3277,3237,3120,3038,2995,2943,2908,2866,2845,2813,2718,2604,2572,2532,2446,2373,2338,2311,2288,2288,2276,2279,2272,2270,2262,2256,2247,2239,2229,2222,2216,2210,2200,2214,2453,2799,3212,3346,3458,3686,3655,3528,3382,3344,3190,3124,3040,2977,2897,2836,2692,2587,2546,2456,2424,2363,2340,2305,2289,2272,2254,2244,2236,2225,2216,2206,2198,2189,2184,2170,2162,2166,2201,2457,2815,2946,3086,3427,3510,3610,3585,3467,3216,3100,2963,2916,2812,2692,2622,2524,2430,2408,2342,2305,2291,2276,2268,2266,2259,2254,2256,2249,2244,2235,2236,2221,2220,2218,2237,2258,2437,2869,2990,3330,3472,3523,3435,3274,3165,3040,2955,2927,2911,2902,2884,2854,2781,2744,2640,2600,2468,2399,2378,2341,2326,2308,2311,2304,2308,2302,2302,2285,2274,2288,2320,2358,2692,3061,3293,3521,3579,3499,3370,3228,3115,3076,3049,2969,2917,2895,2838,2808,2752,2724,2687,2553,2471,2442,2384,2364,2339,2333,2320,2306,2298,2286,2289,2275,2275,2267,2256,2243,2228,2217,2217,2255,2358,2430,2755,3011,3133,3255,3501,3549,3562,3509,3393,3259,3221,3096,2989,2928,2824,2773,2686,2620,2521,2420,2393,14
2155,2100,2085,2054,2043,2040,2099,2224,2520,2856,3036,3159,3156,3060,2949,2887,2827,2654,2566,2492,2475,2482,2487,2514,2516,2507,2494,2444,2373,2350,2323,2231,2212,2164,2154,2166,2198,2398,2620,3034,3414,3508,3616,3629,3626,3561,3505,3308,3233,3166,2980,2932,2886,2794,2773,2745,2736,2717,2663,2560,2430,2209,2084,2064,2008,1996,1990,2004,2060,2372,2745,3123,3220,3300,3399,3292,3246,3092,3043,2908,2872,2778,2756,2703,2692,2658,2647,2593,2572,2486,2455,2420,2325,2292,2212,2188,2134,2107,2076,2054,2066,2197,2475,2858,3204,3290,3399,3396,3289,3241,3077,3027,2884,2847,2780,2751,2729,2679,2671,2652,2640,2631,2560,2533,2452,2363,2338,2309,2243,2190,2180,2165,2149,2138,2137,2136,2195,2377,2472,2572,2924,3033,3139,3358,3347,3315,3280,3134,2991,2943,2906,2799,2775,2730,2708,2697,2662,2644,2604,2535,2513,2426,2401,2317,2297,2233,2203,2179,2170,2167,2164,2167,2174,2273,2511,2624,2739,3112,3215,3374,3425,3444,3433,3366,3227,3174,3044,2909,2879,2818,2785,2742,2700,2631,2552,2460,2433,2348,2285,2261,2248,2207,2192,2184,2182,2179,2187,2184,2184,2188,2340,2753,3273,3562,3557,3429,3331,3194,3116,2998,2958,2937,2900,2873,2818,2799,2715,2622,2521,2437,2364,2348,2299,2292,2265,2256,2250,2246,2235,2234,2229,2222,2221,2219,2255,2638,3030,3591,3616,3395,3164,2978,2957,2945,2926,2905,2842,2741,2709,2598,2532,2453,2406,2353,2328,2309,2312,2305,2311,2307,2307,2310,2304,2299,2295,2313,2344,2380,2514,2711,2834,3209,3513,3610,3585,3373,3313,3123,2955,2936,2891,2893,2888,2892,2865,2855,2776,2683,2572,2479,2395,2378,2354,2317,2298,2287,2288,2272,2268,2277,2286,2414,2483,2799,3052,3396,3588,3569,3536,3479,3296,3225,3166,2997,2959,2894,2866,2853,2826,2824,2820,2807,2776,2704,2666,2637,2523,2453,2363,2284,2271,2250,2210,2200,2201,2257,2445,2771,2909,3042,3418,3504,3576,3629,3457,3398,3139,3033,2914,2870,2833,2834,2809,2764,2734,2709,2600,2523,2416,2376,2314,2291,2262,2210,2173,2172,2162,2168,2170,2176,2174,2181,2228,2277,2512,2631,2752,3165,3286,3550,3584,3562,3386,3177,2891,2799,2804,2793,2754,2662,2556,2514,2483,2373,2313,2292,2266,2252,2206,2197,2218,2238,2273,2311,2354,2603,2707,3090,3208,3412,3530,3531,3482,3287,3203,3129,2855,2733,2719,2704,2741,2746,2758,2735,2721,2663,2621,2585,2447,2409,2329,2290,2266,2197,2191,2175,2182,2190,2201,2217,2239,2361,2442,2530,2900,3298,3416,3505,3638,3624,3544,3409,3175,3092,2907,2857,2786,2778,2805,2846,2845,2827,2746,2717,2677,2570,2529,2500,2408,2349,2327,2316,2274,2257,2259,2281,2432,2888,3169,3526,3598,3671,3537,3475,3398,3174,2980,2892,2818,2798,2791,2787,2777,2722,2700,2665,2556,2474,2351,2281,2255,2225,2205,2149,2140,2122,2113,2111,2100,2139,2172,2231,2505,2907,3043,3180,3518,3535,3467,3273,3130,2944,2807,2780,2752,2713,2696,2695,2685,2647,2621,2532,2492,2378,2301,2195,2121,2097,2057,2036,2037,2035,2039,2048,2066,2067,2076,2077,2092,2208,2290,2631,2778,3216,3532,3598,3473,3251,3180,2983,2938,2894,2824,2802,2807,2806,2806,2758,2736,2702,2594,2466,2355,2261,2202,2184,2164,2158,2162,2176,2189,2196,2201,2206,2272,2330,2599,2725,3136,3271,3555,3618,3536,3327,3036,2893,2821,2812,2820,2824,2818,2748,2645,2516,2397,2296,2227,2208,2179,2171,2170,2167,2175,2174,2208,2237,2440,2541,2661,3067,3205,3512,3568,3573,3411,3186,2989,2852,2825,2775,2770,2767,2767,2743,2728,2705,2614,2491,2407,2292,2195,2148,2098,2066,2063,2058,2057,2061,2069,2147,2209,2507,2938,3086,3230,3536,3586,3570,3525,3318,3167,2978,2854,2830,2789,2787,2785,2784,2755,2738,2651,2615,2493,2410,2302,2218,2198,2166,2146,2136,2139,2140,2158,2164,2183,2186,2189,2188,2224,2263,2504,2621,3054,3204,3577,3653,3701,3676,3558,3403,3322,3090,2886,2833,2804,2803,2799,2763,2606,2484,2441,2327,2291,2211,2188,2145,2130,2130,2132,2148,2162,2177,2181,2193,2192,2237,2346,2432,2793,3234,3366,3483,3674,3680,3553,3479,3215,2970,2905,2854,2766,2760,2785,2802,2846,2852,2827,2804,2700,2614,2524,2398,2299,2233,2203,2201,2211,2219,2227,2244,2260,2308,2343,2547,2889,3287,3580,3652,3626,3516,3441,3357,3269,2939,2781,2731,2726,2782,2797,2748,2719,2684,2560,2428,2387,2349,2257,2215,2176,2164,2179,2336,2754,3399,3597,3266,2822,2685,2709,2695,2565,2356,2220,2130,2123,2205,2532,3206,3564,3307,2990,2747,2707,2739,2652,2417,2186,2132,2141,2189,2302,3100,3629,3601,3079,2824,2818,2826,2781,2752,2641,2507,2465,2421,2344,2312,2229,2213,2196,2171,2168,2175,2178,2203,2209,2233,2237,2245,2241,2232,2230,2309,2370,2682,2816,3267,3404,3688,3723,3732,3670,3533,3267,3182,2964,2827,2816,2845,2861,2860,2809,2709,2664,2621,2480,2438,2392,2285,2209,2195,2181,2175,2199,2231,2236,2304,2519,3170,3622,3542,3239,2963,2848,2880,2941,2835,2654,2430,2329,2256,2242,2243,2264,2266,2276,2282,2289,2446,2760,2890,3178,3447,3706,3739,3609,3460,3215,3011,2923,2871,2861,2852,2866,2860,2857,2796,2688,2637,2592,2432,2331,2233,2108,1992,1867,1812,1791,1764,1701,1632,1615,1592,1555,1541,1510,1526,1556,1805,1929,2073,2860,3136,3136,2968,2891,2818,2679,2618,2519,2512,2579,2750,2794,2898,2902,2888,2824,2802,2772,2702,2640,2628,2611,2593,2583,2586,2584,2595,2593,2601,2596,2589,2578,2575,2554,2538,2506,2498,2578,2642,2979,3122,3557,3801,3953,3981,3909,3778,3519,3431,3188,3135,3035,3030,3045,3064,3085,3085,3021,2991,2901,2795,2734,2578,2409,2372,2310,2276,2279,2275,2294,2314,2327,2328,2339,2333,2353,2528,2623,2877,3473,3606,3787,3799,3665,3297,3126,2996,2885,2878,2909,2927,2916,2853,2721,2621,2474,2383,2307,2270,2205,2164,2157,2169,2168,2189,2188,2200,2200,2282,2420,2639,2768,3221,3490,3714,3689,3627,3560,3295,3049,2975,2923,2810,2799,2795,2809,2831,2827,2774,2612,2460,2417,2286,2256,2221,2158,2118,2136,2161,2172,2172,2190,2338,2663,2813,2962,3274,3541,3645,3758,3642,3398,3155,2967,2930,2856,2850,2848,2856,2842,2833,2809,2754,2722,2584,2540,2486,2391,2269,2171,2117,2086,2083,2097,2121,2131,2137,2134,2135,2127,2119,2298,2402,2809,3298,3438,3727,3756,3692,3623,3551,3282,3051,2986,2943,2851,2854,2875,2847,2768,2623,2389,2333,2148,2097,2037,1899,1852,1781,1757,1727,1680,1665,1654,1657,1653,1658,1664,1684,1689,1738,1853,1951,2202,2524,3056,3223,3554,3625,3621,3583,3537,3314,3095,3029,2986,2908,2914,2947,2975,3021,3046,3044,3001,2886,2845,2792,2649,2516,2486,2450,2388,2354,2350,2365,2365,2383,2382,2389,2406,2534,2844,2973,3411,3541,3815,3850,3780,3546,3279,2962,2904,2905,2918,2929,2869,2840,2758,2706,2558,2502,2458,2327,2217,2185,2170,2170,2191,2206,2223,2217,2216,2206,2195,2228,2424,2827,2984,3321,3728,3870,3860,3686,3260,3021,2925,2927,2918,2908,2829,2795,2748,2552,2409,2360,2254,2177,2164,2147,2132,2132,2139,2139,2157,2164,2163,2161,2154,2145,2126,2110,2104,2307,2706,2870,3399,3552,3874,3914,3926,3788,3541,3361,3128,2997,2969,2957,2945,2962,2959,2959,2904,2877,2749,2599,2445,2320,2223,2204,2181,2150,2139,2151,2162,2176,2178,2167,2167,2149,2134,2124,2121,2101,2088,2097,2291,3015,3525,3930,3647,3271,3048,2923,2934,2946,2991,2981,2968,2942,2830,2780,2622,2566,2418,2371,2268,2239,2189,2177,2173,2173,2183,2194,2200,2210,2239,2248,2248,2236,2211,2206,2303,2581,3016,3461,3738,3743,3695,3447,3349,3246,3052,2896,2763,2744,2763,2836,2881,2899,2804,2761,2617,2466,2304,2230,2188,2184,2187,2195,2220,2252,2259,2268,2276,2287,2456,2781,2917,3214,3362,3695,3757,3786,3714,3283,2950,2797,2861,2907,2836,2714,2466,2342,2251,2232,2190,2185,2187,2210,2238,2264,2271,2272,2261,2318,2370,2448,2662,2797,3273,3428,3573,3851,3863,3814,3748,3485,3302,3080,2932,2919,2931,2959,2930,2837,2646,2445,2361,2291,2219,2206,2187,2180,2187,2194,2208,2222,2238,2243,2244,2241,2228,2221,2222,2297,2364,2451,2838,3320,3715,3860,3757,3685,3429,3189,3127,3073,2972,2946,2948,2951,2944,2911,2856,2731,2680,2528,2478,2346,2309,2222,2201,2162,2154,2147,2153,2164,2173,2171,2162,2158,2153,2140,2129,2122,2123,2406,3173,3751,3838,3512,3086,2932,3004,2939,2710,2377,2232,2242,2292,2296,2272,2277,2712,3162,3660,3722,3726,3527,3440,3089,2959,2911,2876,2851,2835,2869,2882,2891,2882,2806,2724,2576,2476,2341,2242,2218,2170,2162,2156,2159,2179,2202,2215,2226,2221,2211,2189,2179,2154,2160,2293,2633,2951,3454,3805,3883,3839,3782,3710,3452,3365,3282,3091,2990,2965,2968,2973,2968,2913,2707,2410,2201,2198,2225,2196,2139,2141,2261,3347,3965,3409,3114,3069,2732,2425,2264,2221,2203,2209,2218,2227,2223,2213,2199,2171,2155,2136,2118,2121,2133,2353,2910,3577,3966,3809,3572,3183,3074,3052,3046,2962,2768,2597,2446,2324,2294,2227,2214,2195,2198,2207,2216,2233,2240,2244,2245,2233,2229,2221,2200,2178,2167,2161,2158,2161,2174,2232,2472,2594,2894,3234,3399,3686,3874,3929,3906,3706,3515,3203,2970,2861,2875,2947,3017,3017,2950,2912,2863,2702,2474,2379,2270,2211,2197,2190,2204,2215,2221,2252,2257,2276,2275,2275,2267,2251,2239,2214,2202,2197,2190,2324,2412,2530,3159,3630,3907,3893,3592,3313,3146,3076,2953,2927,2932,2957,2984,2988,2940,2872,2730,2510,2455,2322,2208,2176,2159,2173,2192,2207,2226,2222,2215,2200,2183,2157,2153,2134,2128,2122,2124,2155,2349,2748,3272,3726,3987,3974,3801,3729,3467,3382,3298,3116,3030,3024,3018,3034,3039,3018,2894,2849,2685,2521,2466,2419,2292,2197,2187,2171,2187,2189,2199,2215,2228,2225,2227,2208,2179,2145,2143,2149,2172,2281,2352,2723,2883,3392,3907,3972,4004,3749,3541,3343,3292,3153,3073,2955,2908,26
2201,2213,2220,2211,2203,2195,2183,2182,2157,2154,2142,2122,2109,2125,2144,2328,2424,2840,2998,3476,3603,3847,3866,3786,3716,3377,2992,2851,2826,2791,2801,2835,2832,2823,2778,2708,2662,2572,2359,2262,2244,2212,2197,2194,2184,2190,2190,2206,2206,2211,2217,2214,2217,2215,2202,2203,2184,2167,2155,2149,2155,2182,2361,2471,2906,3084,3563,3699,3960,3996,3933,3759,3685,3611,3374,3305,3123,3082,2978,2961,2941,2925,2879,2806,2588,2453,2301,2223,2211,2194,2181,2175,2184,2182,2195,2192,2193,2196,2190,2179,2162,2136,2095,2105,2143,2364,2489,2791,2960,3141,3615,3744,3917,3923,3806,3496,3408,3253,3190,3123,2988,2950,2903,2895,2882,2879,2871,2854,2831,2753,2710,2625,2533,2404,2359,2289,2264,2235,2174,2173,2163,2177,2176,2184,2186,2186,2189,2174,2167,2156,2155,2126,2101,2104,2156,2213,2282,2635,3122,3294,3450,3877,3904,3854,3633,3261,3167,2954,2895,2802,2784,2805,2823,2853,2836,2809,2709,2616,2464,2374,2270,2171,2165,2171,2180,2193,2195,2205,2217,2229,2224,2227,2210,2206,2186,2171,2167,2179,2264,2343,2698,3200,3363,3774,3964,3938,3768,3358,3282,3075,2944,2909,2861,2852,2855,2853,2854,2812,2792,2684,2646,2503,2461,2331,2200,2163,2161,2164,2180,2179,2187,2182,2183,2176,2168,2147,2142,2130,2106,2096,2117,2201,2489,2634,2963,3137,3615,3734,3943,3949,3830,3759,3518,3348,3190,3119,2965,2900,2849,2850,2852,2853,2827,2741,2623,2485,2369,2330,2275,2223,2206,2197,2201,2208,2218,2230,2227,2232,2233,2231,2225,2221,2203,2202,2192,2209,2357,2441,2553,2824,2977,3142,3589,3898,3871,3687,3410,3320,3059,2882,2838,2813,2778,2788,2796,2843,2852,2853,2835,2751,2708,2574,2524,2399,2358,2278,2256,2224,2216,2222,2233,2255,2263,2272,2262,2248,2236,2213,2205,2251,2295,2572,2705,2861,3510,3861,3975,3858,3649,3488,3331,3040,2948,2902,2890,2886,2874,2818,2785,2709,2670,2624,2490,2445,2367,2337,2306,2243,2228,2209,2206,2203,2207,2212,2214,2213,2213,2200,2198,2188,2164,2140,2122,2131,2203,2597,2749,3254,3417,3563,3922,3840,3533,3287,3210,3032,2951,2878,2863,2863,2867,2868,2860,2817,2787,2681,2594,2459,2421,2349,2293,2236,2216,2212,2221,2225,2244,2249,2257,2265,2265,2260,2258,2236,2222,2242,2378,2464,2688,2970,3401,3702,3749,3771,3685,3622,3545,3292,3045,2977,2914,2789,2743,2745,2749,2785,2794,2770,2749,2647,2606,2473,2356,2269,2208,2210,2227,2249,2257,2270,2273,2267,2263,2237,2230,2223,2229,2253,2425,2783,3250,3665,3760,3884,3871,3726,3502,3356,3286,3163,3059,2944,2874,2860,2835,2827,2791,2771,2686,2649,2529,2487,2374,2340,2262,2228,2203,2199,2202,2204,2216,2222,2225,2224,2218,2186,2165,2144,2150,2255,2539,2672,2819,3282,3422,3644,3763,3700,3505,3433,3222,3047,2998,2957,2836,2819,2791,2785,2770,2760,2745,2676,2573,2535,2496,2384,2273,2254,2214,2212,2214,2227,2231,2236,2245,2246,2238,2217,2208,2190,2180,2174,2193,2225,2343,2430,2802,3098,3244,3595,3727,3718,3580,3511,3281,3206,3007,2954,2836,2811,2777,2780,2790,2768,2726,2698,2586,2465,2427,2392,2305,2254,2244,2232,2247,2252,2264,2268,2268,2257,2249,2241,2212,2206,2220,2251,2454,2836,3297,3677,3839,3839,3719,3656,3586,3304,3073,2948,2843,2828,2802,2768,2752,2729,2644,2530,2417,2316,2250,2233,2201,2201,2201,2204,2205,2209,2205,2197,2197,2185,2182,2163,2158,2134,2132,2157,2194,2417,2537,2985,3315,3602,3717,3885,3859,3819,3621,3403,3332,3269,3102,2983,2947,2883,2846,2835,2796,2714,2680,2639,2515,2433,2393,2301,2239,2230,2210,2211,2215,2221,2223,2234,2235,2238,2232,2233,2220,2218,2198,2195,2186,2176,2215,2260,2318,2619,2750,3203,3346,3681,3779,3665,3442,3362,3127,2950,2902,2815,2791,2794,2802,2803,2767,2738,2710,2593,2554,2427,2393,2301,2281,2238,2235,2227,2230,2237,2243,2248,2252,2252,2251,2246,2239,2228,2215,2197,2193,2250,2297,2580,2712,3025,3194,3355,3761,3849,3954,3932,3896,3778,3561,3416,3226,3122,3074,2999,2904,2894,2880,2861,2802,2781,2682,2565,2521,2483,2369,2340,2309,2250,2215,2214,2208,2214,2212,2222,2219,2220,2206,2196,2176,2164,2153,2130,2123,2156,2415,2529,2822,3484,3627,3910,3952,3732,3502,3170,3034,2933,2912,2826,2760,2591,2463,2418,2348,2321,2291,2239,2211,2212,2207,2219,2227,2235,2234,2247,2245,2239,2226,2207,2184,2168,2159,2198,2394,2776,2927,3090,3527,3643,3791,3818,3825,3688,3440,3343,3254,2995,2823,2758,2737,2744,2791,2797,2792,2770,2639,2505,2412,2289,2188,2176,2159,2149,2151,2154,2177,2179,2207,2210,2228,2226,2225,2214,2196,2186,2191,2269,2338,2666,2821,3318,3476,3616,3977,3874,3669,3586,3344,3132,3081,3028,2951,2902,2875,2861,2843,2772,2665,2483,2434,2318,2208,2162,2148,2159,2174,2184,2176,2176,2151,2108,2103,2154,2383,2510,2981,3160,3328,3748,3899,3901,3858,3635,3377,3288,3073,2920,2891,2860,2828,2828,2834,2792,2773,2625,2483,2443,2317,2232,2208,2196,2167,2170,2182,2195,2207,2218,2230,2219,2191,2171,2165,2144,2228,2288,2379,2755,2918,3406,3555,3840,3886,3872,3686,3412,3311,3047,2848,2752,2737,2788,2823,2812,2787,2723,2596,2543,2499,2359,2325,2230,2214,2173,2173,2183,2186,2215,2231,2241,2240,2242,2232,2210,2194,2185,2230,2448,3033,3522,3916,3913,3731,3476,3228,3084,2924,2820,2816,2800,2610,2467,2339,2184,2145,2134,2132,2131,2147,2158,2167,2171,2176,2165,2163,2153,2131,2138,2166,2390,2648,3145,3317,3616,3927,3926,3905,3794,3551,3465,3373,3133,3062,3004,2867,2789,2788,2786,2790,2767,2755,2671,2637,2503,2461,2327,2292,2227,2198,2180,2139,2137,2131,2142,2143,2164,2166,2185,2193,2198,2196,2189,2173,2161,2142,2154,2284,2924,3420,3796,3864,3909,3855,3796,3547,3456,3180,2917,2880,2812,2813,2841,2860,2887,2877,2806,2764,2626,2473,2431,2314,2289,2228,2221,2211,2214,2225,2244,2254,2263,2257,2246,2220,2218,2243,2282,2536,2959,3124,3283,3695,3783,3849,3861,3820,3600,3427,3178,2973,2924,2810,2790,2761,2765,2767,2745,2669,2506,2373,2256,2199,2146,2124,2124,2129,2142,2163,2166,2179,2178,2176,2169,2150,2138,2121,2140,2295,2395,2815,3335,3492,3636,3917,3955,3889,3831,3607,3527,3282,3211,3031,2987,2886,2868,2831,2829,2811,2767,2675,2550,2503,2372,2209,2150,2141,2143,2152,2171,2173,2172,2168,2148,2141,2115,2108,2176,2416,3195,3360,3765,3920,3763,3686,3601,3249,3038,2983,2859,2851,2857,2884,2876,2861,2837,2731,2540,2405,2333,2280,2233,2219,2216,2219,2227,2249,2255,2256,2242,2224,2191,2196,2336,2670,3141,3457,3794,3875,3737,3494,3246,2985,2937,2863,2836,2816,2791,2790,2788,2780,2729,2700,2589,2544,2412,2369,2263,2235,2177,2165,2158,2151,2157,2171,2176,2183,2192,2193,2194,2189,2176,2161,2132,2137,2285,2636,2794,3311,3616,3845,3955,3862,3801,3732,3502,3279,3214,3154,3009,2972,2939,2891,2861,2834,2809,2743,2638,2595,2463,2339,2271,2219,2199,2161,2155,2151,2153,2155,2164,2166,2169,2167,2164,2159,2151,2125,2097,2116,2266,2362,2618,2946,3455,3602,3937,3879,3818,3502,3253,3116,3010,2971,2893,2877,2889,2896,2891,2879,2767,2637,2587,2409,2339,2287,2243,2233,2226,2230,2240,2245,2253,2249,2245,2205,2163,2152,2150,2176,2371,2483,2919,3086,3547,3754,3821,3552,3292,3208,2996,2851,2821,2767,2765,2772,2777,2777,2728,2703,2591,2459,2412,2296,2210,2166,2155,2165,2184,2187,2192,2199,2202,2201,2201,2192,2181,2161,2150,2139,2278,2609,2766,3111,3281,3444,3832,3915,3963,3945,3773,3704,3628,3395,3188,3133,3080,2961,2909,2857,2825,2771,2711,2588,2545,2407,2367,2257,2206,2163,2148,2160,2167,2168,2160,2150,2142,2122,2106,2098,2151,2380,2498,2981,3487,3633,3755,3960,3961,3830,3760,3516,3426,3187,3116,2965,2928,2873,2865,2879,2882,2885,2871,2856,2761,2581,2537,2402,2279,2262,2221,2215,2222,2232,2251,2258,2256,2258,2250,2232,2218,2185,2170,2178,2413,2523,2979,3468,3612,3726,3909,3903,3878,3681,3598,3416,3085,2907,2810,2776,2790,2795,2768,2653,2615,2476,2435,2388,2247,2173,2168,2156,2170,2172,2191,2203,2200,2202,2197,2193,2185,2173,2162,2142,2130,2143,2277,2627,3136,3619,3747,3997,3838,3774,3540,3235,3175,2984,2900,2874,2858,2824,2783,2689,2557,2516,2381,2280,2204,2171,2161,2162,2166,2181,2183,2183,2177,2173,2166,2167,2154,2150,2143,2144,2127,2127,2131,2156,2322,2428,2860,3038,3530,3673,3945,3980,3901,3843,3615,3439,3201,3020,2905,2900,2916,2886,2781,2547,2372,2262,2214,2227,2236,2249,2244,2237,2223,2187,2180,2159,2150,2161,2267,2579,2718,2882,3536,3907,3920,3826,3753,3506,3328,3088,2874,2803,2787,2789,2782,2727,2485,2281,2209,2157,2166,2183,2193,2197,2186,2162,2129,2263,2592,3083,3572,3702,3958,3889,3677,3599,3508,3265,3188,3013,2966,2879,2850,2834,2838,2820,2810,2767,2703,2624,2447,2401,2262,2242,2185,2179,2164,2169,2175,2184,2194,2202,2205,2210,2209,2198,2198,2189,2172,2142,2131,2186,2403,2525,2662,3166,3630,3755,3847,3927,3664,3394,3218,3134,2955,2852,2842,2863,2892,2809,2639,2410,2282,2214,2217,2251,2266,2255,2198,2191,2293,2595,3225,3537,3663,3902,3917,3913,3750,3500,3407,3155,3078,3017,2867,2797,2784,2785,2791,2800,2788,2780,2697,2580,2490,2355,2283,2211,2190,2166,2164,2157,2164,2173,2181,2181,2196,2197,2202,2198,2197,2180,2177,2166,2146,2145,2238,2408,2834,3505,3865,3938,3963,3659,3408,3188,3122,3070,2944,2920,2895,2862,2846,2831,2779,2674,2636,2497,2455,2325,2293,2258,2191,2154,2153,2153,2168,2178,2189,2188,2188,2189,2182,2173,2166,2140,2126,2126,2141,2278,2615,2935,3441,3591,3953,3918,3863,3559,3467,3292,3015,2928,2866,2858,2875,2891,2892,2882,2787,2660,2610,2473,2324,2295,2243,2219,2225,2235,2242,2252,2256,2257,2238,2232,2196,2172,2157,2263,2340,16
3022,2809,2595,2482,2412,2392,2377,2378,2389,2391,2378,2374,2381,2421,2459,2540,2692,2776,2886,3298,3556,3888,4066,4067,4067,4067,4067,4067,4067,4067,4067,4067,4066,4066,4066,4063,3926,3484,3260,3026,2325,2109,1756,1630,1542,1481,1481,1481,1481,1481,1482,1481,1481,1481,1483,1487,1579,1786,1891,2365,3006,3202,3552,3936,4066,4066,4066,4066,4066,4063,3955,3873,3301,2651,2432,1900,1590,1481,1481,1482,1481,1482,1481,1481,1481,1481,1481,1482,1485,1513,1531,1552,1644,1765,1812,1861,2117,2622,3045,3716,3962,4061,4066,4065,4065,4041,3986,3957,3924,3790,3745,3649,3600,3555,3374,3237,3188,2943,2693,2598,2138,2023,1663,1515,1491,1482,1482,1482,1482,1544,1576,1682,1801,1825,1892,1919,2023,2156,2245,2246,2172,2137,2001,1844,1786,1733,1601,1568,1500,1489,1482,1482,1482,1481,1481,1481,1481,1481,1481,1482,1482,1482,1482,1492,1638,1912,2258,2586,2665,2818,2896,2909,2926,2897,2734,2400,2268,2139,1788,1694,1551,1507,1485,1482,1482,1482,1481,1481,1480,1480,1480,1480,1481,1481,1481,1481,1481,1481,1482,1481,1481,1481,1481,1481,1481,1481,1481,1491,1505,1530,1652,1859,1944,2040,2329,2612,2788,3018,3338,3401,3629,3825,3885,4020,4048,4066,4066,4066,4066,4066,4066,4066,4061,4045,4044,4051,4058,4062,4059,4057,4053,4024,4002,3906,3857,3631,3577,3470,3423,3343,3320,3362,3405,3448,3560,3612,3672,3839,3992,4025,4052,4067,4067,4066,4065,4039,4001,3883,3734,3679,3628,3614,3544,3395,3304,3241,3219,3183,3169,3163,3143,3145,3158,3212,3234,3236,3180,3152,3047,3023,3001,3025,3154,3220,3415,3480,3604,3628,3633,3590,3447,3388,3158,2995,2764,2690,2522,2475,2390,2368,2340,2332,2345,2354,2429,2544,2693,2852,2856,2768,2599,2445,2386,2337,2192,2071,2035,2011,1950,1997,2039,2272,2609,2737,2857,3081,3249,3395,3403,3377,3278,3137,3094,3045,2893,2844,2828,2807,2770,2723,2688,2633,2611,2598,2556,2552,2524,2521,2488,2427,2411,2390,2374,2377,2371,2376,2374,2378,2371,2371,2355,2354,2437,2485,2735,3311,3588,3640,3706,3636,3530,3432,3367,3346,3319,3302,3283,3121,2795,2520,2448,2291,2243,2237,2246,2272,2306,2313,2308,2286,2236,2221,2141,2118,2055,2049,2047,2061,2069,2129,2201,2233,2262,2482,2848,2961,3286,3540,3595,3714,3738,3698,3675,3574,3537,3380,3304,3291,3231,3142,3055,3021,3020,3007,3007,2961,2936,2801,2683,2465,2075,2011,1844,1756,1743,1818,1953,2101,2141,2239,2301,2427,2838,3141,3395,3416,3273,3222,3038,2864,2766,2721,2637,2595,2596,2592,2601,2588,2585,2558,2522,2502,2487,2425,2408,2382,2263,2161,2053,2055,2122,2203,2235,2297,2324,2319,2304,2298,2309,2394,2623,2724,2843,3207,3325,3573,3624,3648,3626,3470,3406,3179,3109,2911,2865,2769,2761,2770,2806,2861,2875,2873,2794,2690,2655,2538,2465,2374,2324,2267,2232,2231,2229,2241,2243,2260,2261,2277,2275,2288,2344,2518,2823,2951,3336,3634,3690,3732,3716,3558,3480,3403,3149,3072,2867,2821,2730,2721,2762,2833,2840,2832,2814,2735,2698,2580,2537,2420,2381,2289,2261,2239,2188,2180,2161,2162,2167,2186,2190,2199,2216,2232,2236,2235,2228,2232,2253,2395,2479,2578,2966,3383,3505,3605,3785,3716,3658,3516,3356,3127,3058,2906,2872,2831,2849,2865,2878,2907,2904,2864,2836,2731,2688,2512,2394,2296,2212,2187,2179,2182,2194,2206,2225,2244,2245,2254,2254,2255,2252,2264,2288,2323,2538,2643,3055,3206,3629,3734,3821,3927,3833,3765,3520,3256,3175,3098,2926,2860,2843,2842,2882,2898,2915,2898,2822,2703,2567,2521,2479,2359,2267,2242,2223,2178,2170,2160,2162,2176,2180,2198,2202,2215,2222,2225,2228,2227,2227,2225,2253,2281,2565,2955,3104,3536,3651,3864,3851,3667,3401,3134,3054,2870,2829,2800,2774,2784,2841,2862,2903,2906,2867,2842,2729,2544,2499,2371,2271,2204,2171,2166,2169,2206,2261,2278,2281,2362,2577,3209,3714,3594,3335,2966,2887,2704,2628,2634,2699,2728,2796,2795,2778,2683,2559,2515,2473,2353,2259,2233,2212,2158,2146,2148,2169,2189,2204,2226,2230,2240,2256,2260,2314,2499,2596,2996,3153,3596,3945,3969,3896,3595,3500,3224,2940,2857,2813,2817,2826,2873,2902,2882,2795,2667,2620,2474,2340,2303,2237,2147,2116,2115,2118,2144,2170,2185,2206,2213,2215,2213,2210,2207,2211,2273,2491,2602,3041,3205,3646,3757,3945,3948,3823,3748,3482,3382,3287,3029,2816,2772,2773,2784,2854,2877,2874,2813,2599,2546,2399,2270,2202,2134,2118,2099,2105,2113,2120,2152,2192,2200,2224,2234,2238,2238,2239,2225,2225,2227,2451,2548,2953,3407,3542,3805,3842,3791,3734,3483,3099,3013,2795,2746,2682,2674,2781,2843,2897,2856,2666,2528,2362,2267,2249,2202,2199,2199,2209,2235,2250,2295,2315,2329,2407,2726,3120,3397,3711,3823,3805,3771,3560,3279,2992,2774,2639,2633,2712,2819,2825,2809,2719,2645,2570,2470,2353,2300,2224,2169,2152,2141,2435,3138,3659,3803,3630,3341,3239,3129,2828,2588,2533,2484,2423,2450,2526,2575,2570,2496,2466,2425,2304,2176,2141,2103,2019,1993,1948,1934,1921,1917,1929,1938,1961,1972,1998,2077,2124,2195,2503,2946,3248,3580,3646,3668,3160,2791,2637,2604,2626,2630,2568,2487,2350,2241,2213,2127,2076,2057,2045,2058,2071,2090,2114,2116,2131,2137,2134,2135,2140,2149,2276,2526,2645,3043,3588,3662,3538,3361,3184,3053,2953,2936,2926,2928,2921,2900,2838,2816,2784,2694,2657,2629,2481,2419,2398,2364,2338,2336,2330,2326,2326,2320,2322,2313,2314,2309,2312,2302,2307,2336,2372,2534,2806,3103,3363,3396,3305,3266,3214,3066,2923,2889,2851,2790,2782,2785,2814,2819,2806,2763,2737,2717,2608,2524,2503,2433,2374,2358,2348,2341,2337,2357,2496,2553,2786,2868,3099,3240,3236,3136,3015,2968,2930,2815,2743,2709,2728,2762,2790,2788,2788,2749,2687,2635,2553,2533,2467,2409,2388,2379,2372,2367,2369,2374,2447,2487,2545,2761,3097,3167,3286,3300,3226,3153,3085,3070,3019,3009,2991,2956,2919,2906,2879,2843,2836,2826,2806,2751,2726,2641,2603,2572,2469,2419,2370,2352,2323,2292,2288,2264,2251,2243,2242,2226,2217,2209,2201,2205,2213,2320,2628,2725,3037,3314,3341,3359,3327,3232,3189,3076,3038,2958,2903,2885,2882,2866,2862,2849,2806,2736,2715,2633,2556,2506,2437,2423,2374,2367,2345,2349,2366,2431,2527,2646,2780,2801,2856,2861,2872,2870,2877,2966,3140,3217,3290,3505,3632,3626,3554,3465,3271,3050,2953,2877,2862,2815,2746,2723,2618,2492,2441,2396,2249,2205,2071,2033,1924,1848,1805,1795,1794,1807,1828,1837,1874,1983,2037,2256,2339,2605,2755,2899,2939,2933,2873,2851,2762,2728,2740,2782,2847,2872,2870,2851,2835,2787,2765,2701,2635,2596,2550,2507,2498,2500,2514,2624,2828,2915,3002,3327,3457,3469,3473,3407,3280,3228,3079,2948,2914,2882,2822,2809,2804,2792,2793,2771,2762,2707,2631,2601,2575,2485,2382,2362,2305,2293,2278,2245,2238,2235,2239,2247,2257,2327,2515,2602,3058,3393,3478,3638,3651,3610,3571,3428,3321,3166,3002,2956,2945,2940,2926,2882,2810,2709,2675,2563,2529,2494,2430,2374,2289,2260,2250,2224,2221,2211,2211,2208,2209,2211,2212,2210,2216,2393,2472,2786,3158,3376,3582,3599,3567,3416,3358,3175,3119,2977,2942,2870,2851,2848,2841,2806,2787,2709,2680,2647,2542,2442,2412,2383,2310,2250,2242,2230,2235,2240,2246,2269,2279,2281,2282,2278,2269,2295,2433,2821,3203,3324,3662,3712,3693,3659,3498,3296,3228,3163,2999,2955,2869,2851,2836,2837,2839,2812,2793,2716,2682,2534,2496,2382,2286,2232,2162,2134,2132,2139,2151,2158,2177,2178,2176,2174,2177,2178,2221,2368,2443,2761,3219,3305,3455,3379,3330,3154,3086,3016,2795,2545,2505,2458,2466,2537,2568,2640,2651,2637,2617,2525,2490,2372,2333,2223,2191,2106,2086,2031,2023,2028,2038,2046,2092,2245,2533,2652,3032,3394,3438,3464,3363,3318,3266,3110,2939,2908,2865,2882,2944,3004,3017,3019,2944,2914,2807,2699,2661,2629,2537,2452,2439,2406,2401,2395,2390,2386,2382,2379,2457,2506,2756,3250,3373,3671,3731,3782,3715,3519,3442,3196,3120,2918,2868,2820,2739,2724,2735,2765,2777,2770,2708,2680,2569,2488,2369,2257,2197,2131,2111,2081,2071,2068,2081,2091,2097,2098,2113,2113,2126,2133,2138,2144,2291,2705,3161,3312,3708,3797,3937,3934,3917,3760,3528,3442,3362,3134,3076,2941,2918,2884,2902,2908,2889,2795,2762,2626,2529,2393,2244,2215,2165,2136,2139,2148,2168,2170,2189,2191,2197,2205,2216,2215,2218,2217,2257,2296,2503,3013,3167,3590,3864,3905,3929,3857,3803,3731,3311,3073,2914,2837,2833,2847,2862,2886,2891,2857,2837,2736,2614,2478,2359,2256,2204,2154,2125,2121,2131,2153,2163,2182,2229,2405,2853,3271,3612,3684,3739,3754,3610,3455,3110,2882,2825,2702,2685,2671,2699,2748,2742,2649,2611,2499,2454,2338,2298,2202,2151,2084,2064,2068,2073,2096,2103,2121,2220,2286,2559,2684,3088,3455,3542,3614,3679,3662,3504,3434,3175,3092,2852,2792,2655,2638,2632,2652,2717,2744,2781,2786,2776,2725,2620,2541,2422,2344,2242,2176,2130,2124,2113,2119,2257,2326,2652,2783,2931,3349,3641,3685,3714,3640,3331,3242,2956,2726,2662,2617,2537,2582,2635,2703,2716,2686,2591,2496,2352,2312,2280,2189,2163,2244,2279,2411,2485,2509,2638,2879,3127,3651,3998,4051,3937,3888,3705,3631,3368,3278,3275,3533,3906,4030,3941,3728,3439,3055,2905,2725,2575,2522,2357,2312,2299,2342,2394,2519,2806,3215,3610,3717,3864,3620,3327,3032,2700,2526,2430,2383,2380,2369,2329,2301,2209,2166,2041,1847,1793,1655,1543,1496,1481,1481,1481,1481,1481,1481,1481,1483,1493,1578,1640,2055,2485,2630,3032,3103,3095,2941,2777,2729,2554,2486,2485,2484,2537,2622,2639,2620,2543,2469,2437,2353,2319,2238,2211,2175,2167,2173,2171,2152,2091,2074,2018,2001,2035,2159,2490,2871,3015,3151,3530,3763,3802,3813,3752,3536,3472,3308,3177,3109,3109,3234,3398,3451,3505,3612,3626,3601,3571,3411,3199,3118,3043,2747,2575,2535,26
2743,2729,2718,2710,2699,2693,2689,2685,2680,2681,2677,2665,2664,2658,2643,2634,2633,2627,2629,2626,2627,2624,2626,2633,2663,2688,2725,2757,2762,2752,2740,2731,2728,2710,2699,2697,2698,2693,2695,2688,2687,2673,2671,2657,2656,2644,2645,2636,2637,2629,2630,2626,2625,2633,2649,2684,2707,2730,2730,2715,2705,2687,2678,2674,2659,2656,2654,2657,2660,2670,2670,2674,2676,2678,2676,2672,2669,2665,2665,2658,2658,2654,2650,2656,2664,2671,2708,2745,2756,2762,2772,2768,2761,2759,2753,2738,2730,2717,2716,2708,2710,2704,2699,2694,2693,2673,2648,2643,2621,2608,2601,2599,2589,2588,2583,2584,2602,2633,2647,2681,2691,2707,2709,2701,2699,2686,2684,2678,2667,2666,2667,2665,2669,2670,2673,2671,2662,2657,2656,2657,2660,2661,2668,2693,2726,2763,2771,2787,2776,2768,2751,2729,2714,2712,2706,2701,2692,2693,2689,2681,2673,2667,2660,2648,2643,2640,2636,2635,2629,2632,2633,2640,2668,2700,2707,2721,2730,2721,2719,2709,2708,2700,2693,2691,2679,2678,2671,2671,2668,2669,2668,2668,2660,2659,2647,2644,2632,2633,2630,2632,2633,2636,2647,2656,2663,2704,2720,2774,2790,2820,2819,2816,2809,2783,2747,2739,2721,2716,2712,2701,2695,2694,2686,2677,2660,2645,2632,2627,2626,2626,2646,2681,2697,2713,2760,2790,2795,2798,2796,2786,2784,2780,2772,2762,2761,2757,2754,2752,2752,2748,2745,2742,2741,2729,2717,2712,2708,2694,2685,2682,2682,2697,2723,2734,2772,2780,2778,2762,2746,2723,2701,2695,2679,2675,2667,2667,2665,2666,2664,2665,2660,2656,2647,2644,2648,2691,2732,2778,2779,2757,2726,2716,2706,2704,2703,2701,2697,2684,2676,2672,2671,2669,2671,2673,2695,2751,2784,2822,2828,2828,2805,2795,2783,2748,2715,2704,2695,2673,2662,2658,2655,2655,2652,2651,2643,2640,2637,2627,2616,2614,2611,2604,2601,2601,2613,2622,2660,2675,2718,2730,2740,2751,2738,2726,2707,2686,2676,2672,2673,2673,2673,2672,2664,2650,2646,2645,2645,2666,2699,2753,2779,2783,2777,2760,2745,2739,2719,2706,2703,2696,2693,2683,2670,2659,2649,2638,2635,2637,2686,2748,2787,2783,2752,2730,2703,2693,2686,2683,2677,2669,2665,2663,2650,2639,2635,2629,2627,2631,2638,2682,2697,2740,2768,2772,2773,2766,2750,2746,2740,2726,2713,2711,2708,2701,2699,2695,2693,2686,2681,2670,2659,2657,2651,2648,2647,2646,2646,2644,2644,2643,2644,2644,2658,2688,2715,2756,2781,2779,2768,2747,2733,2717,2696,2695,2695,2697,2698,2695,2695,2689,2689,2682,2676,2667,2663,2657,2653,2652,2667,2712,2738,2766,2771,2754,2736,2710,2702,2692,2687,2682,2684,2681,2682,2676,2672,2663,2659,2655,2652,2647,2645,2647,2649,2653,2671,2711,2757,2801,2814,2811,2798,2769,2761,2748,2746,2738,2724,2706,2703,2695,2678,2659,2657,2643,2638,2635,2631,2623,2623,2618,2611,2617,2647,2657,2703,2716,2757,2762,2771,2767,2756,2748,2729,2715,2697,2694,2681,2682,2679,2681,2675,2664,2641,2635,2611,2599,2595,2597,2601,2607,2609,2621,2632,2642,2649,2691,2705,2770,2807,2811,2807,2800,2793,2783,2782,2780,2790,2796,2799,2798,2782,2765,2762,2748,2748,2744,2747,2745,2758,2777,2795,2824,2870,2892,2890,2888,2880,2853,2841,2805,2771,2702,2629,2553,2497,2455,2435,2428,2425,2424,2437,2450,2453,2460,2471,2482,2514,2555,2609,2624,2643,2674,2687,2684,2685,2672,2661,2654,2653,2639,2640,2635,2636,2634,2637,2634,2634,2623,2615,2604,2584,2577,2562,2563,2555,2560,2560,2570,2599,2665,2686,2721,2740,2728,2710,2709,2694,2689,2694,2696,2701,2704,2700,2702,2696,2692,2680,2681,2675,2671,2665,2663,2663,2675,2713,2723,2766,2773,2794,2790,2782,2773,2756,2732,2717,2702,2705,2699,2704,2703,2708,2700,2703,2691,2692,2678,2680,2667,2669,2657,2659,2654,2667,2695,2727,2780,2818,2817,2814,2805,2790,2779,2763,2742,2741,2733,2727,2720,2722,2713,2704,2704,2689,2681,2673,2661,2652,2654,2650,2656,2658,2692,2754,2767,2807,2813,2815,2807,2790,2762,2757,2747,2731,2711,2712,2706,2703,2698,2696,2692,2688,2681,2673,2667,2659,2652,2645,2639,2634,2628,2628,2624,2647,2684,2706,2756,2800,2803,2809,2799,2797,2772,2767,2739,2725,2704,2701,2695,2695,2685,2678,2663,2658,2660,2654,2657,2652,2655,2650,2650,2642,2645,2642,2666,2683,2740,2773,2786,2785,2764,2761,2734,2708,2700,2691,2692,2681,2683,2675,2667,2650,2650,2641,2635,2625,2619,2621,2619,2614,2623,2635,2667,2720,2731,2773,2780,2772,2748,2732,2721,2709,2699,2699,2686,2687,2681,2685,2677,2679,2674,2667,2652,2637,2639,2625,2628,2618,2622,2612,2616,2613,2639,2688,2733,2753,2762,2788,2777,2776,2766,2748,2721,2719,2708,2698,2689,2689,2678,2675,2678,2668,2665,2658,2659,2646,2643,2636,2638,2628,2630,2625,2625,2619,2622,2617,2620,2616,2628,2652,2701,2713,2762,2779,2784,2778,2766,2755,2738,2727,2711,2702,2695,2691,2684,2685,2680,2676,2669,2664,2657,2659,2650,2636,2639,2632,2633,2627,2678,2728,2738,2772,2773,2774,2765,2751,2728,2727,2716,2708,2695,2698,2692,2695,2693,2683,2679,2672,2658,2654,2648,2651,2642,2645,2641,2645,2646,2640,2645,2642,2638,2654,2699,2708,2757,2781,2785,2781,2759,2758,2747,2734,2724,2717,2711,2702,2701,2692,2676,2676,2662,2652,2652,2646,2649,2644,2648,2643,2647,2643,2646,2640,2650,2669,2744,2785,2775,2747,2727,2719,2713,2707,2706,2706,2695,2696,2689,2680,2673,2673,2659,2648,2650,2647,2647,2650,2645,2670,2700,2748,2759,2790,2788,2788,2779,2761,2736,2733,2723,2709,2711,2707,2714,2710,2712,2707,2693,2684,2676,2668,2661,2655,2649,2648,2643,2646,2642,2646,2643,2654,2656,2668,2700,2748,2774,2793,2785,2782,2756,2736,2727,2724,2709,2703,2706,2704,2707,2704,2705,2693,2694,2687,2680,2666,2660,2658,2647,2650,2644,2647,2646,2678,2694,2736,2781,2788,2799,2801,2792,2783,2781,2759,2757,2747,2737,2722,2724,2718,2712,2712,2704,2698,2684,2684,2676,2669,2660,2662,2654,2652,2653,2648,2648,2643,2650,2651,2682,2691,2748,2764,2785,2783,2783,2765,2754,2746,2731,2721,2723,2717,2708,2708,2691,2682,2674,2673,2660,2662,2657,2654,2649,2652,2649,2648,2645,2653,2693,2709,2748,2782,2785,2778,2776,2756,2743,2734,2733,2720,2713,2716,2713,2714,2704,2705,2681,2671,2657,2651,2646,2641,2643,2641,2638,2645,2687,2746,2762,2783,2792,2786,2775,2767,2743,2733,2726,2715,2714,2709,2710,2700,2687,2680,2673,2661,2650,2640,2641,2634,2635,2632,2633,2628,2631,2627,2628,2646,2653,2698,2761,2784,2791,2786,2779,2756,2753,2734,2714,2714,2704,2696,2697,2686,2678,2670,2656,2649,2644,2644,2635,2633,2625,2620,2621,2616,2618,2614,2617,2615,2617,2633,2677,2689,2744,2756,2787,2785,2783,2775,2759,2734,2725,2714,2707,2696,2696,2693,2695,2685,2680,2674,2674,2659,2653,2648,2638,2639,2632,2634,2626,2623,2626,2620,2619,2623,2618,2621,2618,2628,2632,2669,2699,2745,2780,2780,2771,2768,2744,2718,2715,2701,2693,2696,2693,2694,2688,2689,2677,2669,2662,2661,2650,2651,2645,2641,2633,2635,2632,2631,2626,2626,2628,2624,2627,2625,2631,2631,2657,2684,2730,2777,2784,2799,2794,2781,2767,2746,2724,2717,2711,2708,2704,2706,2701,2697,2691,2691,2676,2669,2660,2649,2639,2640,2632,2628,2631,2626,2626,2627,2624,2626,2624,2632,2655,2672,2684,2738,2780,2796,2798,2792,2789,2765,2740,2728,2714,2712,2706,2705,2700,2701,2689,2679,2673,2672,2657,2656,2649,2640,2634,2635,2635,2631,2636,2634,2635,2632,2634,2632,2650,2657,2715,2769,2779,2803,2800,2791,2781,2763,2753,2738,2730,2721,2716,2714,2711,2715,2711,2706,2701,2702,2686,2685,2667,2654,2654,2645,2642,2643,2641,2638,2642,2638,2640,2639,2646,2648,2683,2727,2747,2759,2799,2805,2799,2784,2760,2744,2727,2726,2716,2717,2712,2714,2704,2700,2693,2693,2678,2677,2671,2662,2649,2645,2642,2638,2636,2636,2630,2633,2632,2640,2682,2694,2748,2760,2794,2795,2794,2786,2771,2761,2746,2737,2726,2718,2711,2705,2705,2701,2698,2692,2688,2681,2681,2667,2655,2655,2644,2643,2638,2640,2633,2633,2629,2631,2623,2626,2622,2627,2659,2671,2723,2781,2786,2795,2780,2768,2742,2729,2721,2713,2707,2710,2702,2701,2697,2697,2684,2669,2668,2656,2653,2648,2649,2643,2643,2635,2634,2629,2629,2631,2640,2646,2688,2732,2751,2760,2787,2783,2776,2764,2756,2744,2736,2719,2712,2706,2701,2696,2690,2684,2676,2669,2662,2656,2657,2646,2640,2643,2635,2633,2628,2630,2616,2607,2600,2600,2589,2613,2628,2665,2683,2692,2722,2723,2716,2709,2693,2685,2678,2661,2661,2662,2664,2655,2657,2643,2640,2644,2646,2652,2649,2651,2645,2649,2641,2644,2639,2638,2631,2635,2634,2659,2700,2721,2769,2798,2823,2822,2817,2812,2804,2794,2786,2779,2772,2771,2766,2769,2764,2755,2750,2741,2724,2717,2711,2710,2696,2691,2683,2684,2673,2669,2661,2662,2648,2632,2634,2634,2645,2671,2687,2718,2731,2735,2740,2717,2707,2686,2662,2660,2652,2643,2635,2638,2634,2637,2632,2634,2625,2627,2619,2622,2616,2618,2614,2617,2614,2617,2612,2613,2609,2618,2622,2660,2696,2712,2718,2738,2729,2719,2706,2705,2686,2686,2677,2680,2678,2690,2691,2707,2708,2720,2717,2720,2715,2714,2708,2701,2703,2699,2702,2699,2704,2702,2707,2702,2707,2704,2710,2724,2765,2775,2793,2825,2843,2840,2819,2816,2804,2789,2764,2761,2750,2737,2713,2709,2688,2678,2660,2651,2645,2637,2639,2629,2629,2623,2627,2622,2619,2629,2649,2667,2712,2775,2793,2798,2790,2777,2752,2741,2728,2708,2702,2699,2695,2689,2686,2679,2663,2649,2644,2638,2635,2628,2628,2622,2624,2618,2621,2619,2623,2664,2684,2732,2752,2783,2793,2786,2779,2764,2739,2718,2717,2703,2692,2686,2682,2669,2655,2651,2643,2637,2638,2630,2633,2627,2629,2623,2626,2621,2630,2710,2792,2803,2780,2767,2746,2735,2723,2709,2703,2699,2687,2688,2682,2667,2654,2651,2644,2642,2641,2632,2633,2629,2629,2624,2625,2618,2630,2678,2729,12
2628,2552,2480,2430,2399,2390,2388,2389,2399,2462,2501,2691,2857,3103,3254,3268,3170,2938,2880,2721,2627,2608,2599,2604,2617,2645,2656,2669,2679,2662,2612,2586,2519,2493,2438,2384,2382,2377,2389,2395,2473,2647,2728,2811,3083,3160,3229,3324,3227,3180,3008,2956,2809,2774,2690,2678,2660,2662,2671,2679,2671,2667,2620,2603,2532,2512,2445,2431,2388,2382,2363,2365,2364,2369,2373,2382,2429,2469,2513,2721,2801,3059,3127,3255,3258,3195,3148,2996,2891,2758,2643,2624,2631,2634,2616,2576,2552,2532,2449,2373,2345,2326,2270,2244,2234,2228,2225,2228,2224,2225,2222,2218,2241,2409,2478,2742,2918,2989,3055,3095,3129,3106,3037,2996,2946,2808,2764,2731,2652,2641,2627,2637,2668,2705,2708,2686,2631,2614,2552,2536,2515,2479,2450,2448,2436,2436,2439,2446,2454,2461,2484,2508,2623,2686,2911,2999,3078,3276,3310,3327,3300,3224,3180,3125,2975,2822,2795,2760,2762,2773,2777,2795,2790,2789,2748,2690,2662,2642,2570,2519,2500,2492,2462,2456,2450,2454,2449,2460,2483,2580,2638,2697,2931,3006,3146,3236,3262,3165,3123,3069,2875,2769,2738,2681,2692,2692,2693,2645,2579,2561,2491,2440,2421,2398,2383,2375,2383,2389,2398,2405,2414,2455,2480,2568,2634,2861,2951,3171,3227,3280,3272,3118,2960,2832,2738,2722,2687,2687,2694,2709,2704,2693,2669,2619,2533,2507,2457,2437,2428,2399,2398,2396,2391,2397,2415,2425,2434,2442,2479,2540,2708,3040,3127,3336,3344,3295,3151,3101,3043,2898,2784,2765,2743,2724,2751,2756,2774,2768,2764,2715,2647,2617,2563,2495,2436,2427,2395,2390,2386,2391,2393,2424,2450,2574,2638,2863,2948,3148,3194,3225,3209,3084,3035,2865,2815,2684,2656,2597,2594,2589,2615,2641,2652,2644,2619,2581,2557,2497,2425,2400,2373,2368,2365,2375,2375,2385,2424,2459,2614,2690,2941,3108,3276,3294,3225,3075,2902,2764,2670,2638,2640,2662,2689,2681,2637,2623,2600,2521,2477,2459,2434,2423,2421,2410,2414,2411,2417,2428,2496,2534,2591,2805,3072,3149,3222,3335,3344,3264,3221,3046,2991,2826,2785,2686,2655,2655,2678,2691,2696,2705,2670,2656,2588,2568,2541,2480,2420,2407,2395,2395,2403,2406,2433,2457,2476,2494,2617,2673,2901,2981,3211,3260,3300,3281,3191,3072,2881,2729,2687,2658,2608,2627,2638,2658,2703,2718,2723,2718,2673,2657,2635,2562,2533,2513,2492,2490,2487,2493,2527,2596,2773,2844,2922,3135,3253,3257,3252,3150,2986,2924,2867,2710,2608,2584,2572,2562,2599,2611,2626,2628,2608,2597,2551,2535,2480,2463,2413,2401,2387,2360,2347,2351,2403,2557,2790,3044,3110,3227,3195,3160,3113,2954,2794,2751,2710,2628,2612,2609,2616,2659,2697,2709,2679,2665,2603,2540,2518,2500,2449,2413,2402,2393,2371,2370,2370,2423,2461,2651,2731,2993,3140,3249,3072,2903,2747,2618,2588,2586,2592,2618,2630,2645,2646,2647,2618,2540,2518,2448,2377,2367,2346,2344,2355,2381,2440,2481,2665,2748,3014,3233,3309,3235,3069,2943,2773,2724,2623,2585,2587,2592,2635,2649,2684,2685,2666,2606,2528,2454,2436,2402,2397,2405,2422,2472,2502,2729,2980,3065,3266,3320,3300,3268,3104,3040,2972,2727,2607,2584,2567,2610,2633,2655,2712,2703,2690,2627,2551,2526,2501,2431,2410,2391,2341,2328,2297,2294,2342,2509,2673,2954,3204,3222,3182,3143,2938,2887,2788,2742,2701,2606,2559,2552,2552,2571,2585,2544,2521,2443,2417,2351,2336,2327,2339,2454,2566,2880,3142,3381,3438,3496,3477,3440,3259,3034,2962,2892,2723,2612,2592,2578,2584,2595,2636,2646,2659,2625,2606,2582,2509,2482,2458,2398,2359,2348,2341,2327,2337,2353,2381,2539,2798,2894,2991,3227,3275,3302,3271,3117,3053,2986,2795,2587,2554,2590,2603,2636,2640,2634,2625,2609,2548,2523,2497,2418,2352,2333,2317,2283,2267,2268,2332,2498,2760,2856,2952,3228,3175,2998,2683,2566,2526,2564,2584,2621,2651,2641,2611,2521,2450,2396,2357,2350,2346,2353,2378,2494,2808,2904,3177,3245,3298,3336,3222,3162,3098,2890,2827,2667,2631,2572,2587,2602,2622,2672,2686,2690,2681,2627,2608,2582,2497,2439,2419,2408,2409,2408,2431,2531,2592,2660,2934,3032,3302,3361,3432,3413,3283,3153,2892,2747,2671,2657,2655,2668,2681,2707,2713,2670,2604,2522,2499,2430,2375,2371,2357,2362,2366,2380,2467,2526,2589,2847,3124,3204,3264,3339,3252,3141,2951,2778,2734,2693,2621,2608,2606,2632,2658,2665,2652,2606,2582,2561,2488,2426,2405,2392,2359,2346,2357,2377,2418,2548,2611,2857,2944,3181,3232,3284,3184,3133,3072,2884,2823,2679,2643,2590,2583,2617,2658,2643,2630,2591,2567,2545,2471,2411,2392,2356,2343,2341,2341,2350,2357,2371,2394,2463,2631,2864,2949,3150,3193,3211,3188,3049,2993,2932,2768,2648,2606,2602,2644,2653,2668,2650,2638,2618,2557,2532,2512,2447,2410,2398,2394,2377,2380,2380,2385,2394,2419,2432,2556,2755,2840,3089,3162,3215,3283,3197,3151,3093,2922,2864,2729,2692,2636,2648,2675,2705,2696,2634,2572,2546,2488,2467,2455,2415,2399,2393,2395,2395,2410,2411,2419,2434,2451,2535,2647,2962,3242,3257,3111,2827,2701,2622,2628,2633,2666,2676,2666,2598,2549,2528,2500,2436,2381,2373,2359,2344,2339,2341,2345,2365,2369,2378,2394,2437,2502,2763,3025,3112,3287,3285,3249,3017,2951,2696,2603,2624,2665,2670,2644,2630,2607,2534,2504,2427,2400,2344,2326,2301,2294,2299,2299,2322,2326,2352,2359,2431,2525,2831,3091,3167,3291,3266,3226,3182,3010,2848,2798,2762,2685,2686,2703,2751,2770,2778,2789,2752,2736,2711,2642,2572,2557,2536,2503,2490,2481,2475,2480,2479,2493,2497,2558,2593,2646,2849,3179,3250,3367,3234,2933,2754,2688,2713,2756,2759,2718,2701,2675,2608,2520,2485,2446,2435,2429,2437,2436,2450,2449,2467,2473,2497,2612,2832,2916,3010,3249,3376,3377,3304,3251,3201,3018,2866,2819,2789,2717,2705,2704,2715,2731,2737,2727,2720,2663,2594,2518,2461,2441,2411,2394,2400,2410,2429,2430,2444,2447,2456,2462,2555,2747,3017,3257,3316,3368,3281,3110,2941,2773,2708,2700,2700,2710,2726,2732,2728,2705,2641,2620,2590,2514,2441,2426,2407,2380,2365,2369,2368,2383,2394,2403,2405,2419,2418,2427,2430,2511,2557,2779,2864,3142,3281,3353,3231,3066,3006,2955,2818,2788,2719,2710,2702,2708,2724,2709,2668,2593,2521,2451,2437,2394,2389,2379,2373,2375,2377,2384,2385,2402,2409,2413,2419,2481,2520,2724,2904,3171,3358,3364,3275,3120,3060,3011,2865,2771,2746,2733,2713,2708,2711,2716,2702,2679,2626,2526,2497,2437,2388,2382,2369,2362,2363,2361,2367,2366,2383,2399,2398,2405,2402,2410,2416,2510,2560,2794,2979,3282,3337,3259,3207,3048,2990,2944,2812,2738,2718,2711,2698,2711,2715,2694,2667,2611,2536,2476,2453,2442,2403,2400,2389,2386,2386,2394,2393,2411,2420,2429,2427,2437,2447,2457,2565,2617,2690,3027,3237,3284,3307,3209,3153,3103,2936,2893,2776,2756,2712,2714,2741,2762,2755,2723,2653,2632,2601,2530,2464,2453,2435,2412,2403,2398,2402,2399,2411,2411,2424,2422,2430,2427,2464,2575,2786,3030,3219,3246,3264,3209,3071,3012,2857,2806,2770,2679,2655,2699,2698,2601,2510,2464,2427,2417,2423,2428,2447,2449,2467,2482,2630,2840,3271,3399,3247,2975,2843,2774,2744,2748,2761,2769,2767,2762,2717,2699,2671,2597,2515,2496,2471,2425,2394,2394,2386,2393,2406,2405,2421,2420,2433,2437,2516,2684,2931,3160,3284,3284,3211,3158,2988,2924,2765,2718,2635,2616,2614,2622,2681,2697,2700,2643,2593,2518,2444,2431,2385,2370,2365,2370,2368,2377,2416,2518,2704,2955,3032,3226,3171,2997,2880,2732,2618,2593,2616,2620,2632,2637,2601,2590,2529,2514,2491,2440,2395,2389,2376,2365,2361,2369,2369,2392,2456,2493,2763,3039,3120,3314,3197,2955,2788,2657,2624,2663,2699,2703,2663,2596,2546,2449,2399,2364,2363,2385,2530,3032,3392,3328,3096,2803,2655,2662,2716,2742,2718,2638,2617,2536,2475,2454,2443,2405,2397,2393,2397,2405,2413,2413,2439,2502,2548,2597,2823,3168,3323,3343,3284,3241,3181,2988,2794,2743,2656,2582,2589,2596,2643,2650,2646,2557,2486,2404,2358,2340,2333,2310,2320,2322,2332,2347,2371,2376,2394,2480,2946,3328,3352,3120,2783,2676,2696,2728,2674,2599,2500,2425,2388,2387,2406,2425,2469,2665,3021,3340,3390,3203,2954,2768,2692,2684,2704,2686,2605,2485,2420,2373,2367,2375,2387,2397,2416,2423,2433,2500,2685,2859,3145,3395,3414,3349,3118,2991,2830,2701,2668,2672,2674,2703,2714,2716,2706,2667,2592,2570,2539,2467,2425,2377,2352,2352,2368,2392,2403,2430,2447,2480,2640,2897,2986,3081,3292,3350,3303,3138,3077,3006,2822,2683,2657,2631,2614,2642,2662,2674,2710,2708,2689,2668,2605,2575,2503,2437,2400,2377,2381,2380,2395,2396,2424,2439,2620,2696,2950,3251,3311,3221,2971,2728,2618,2575,2581,2586,2641,2689,2703,2704,2691,2626,2604,2572,2463,2402,2382,2354,2339,2343,2340,2349,2360,2369,2393,2521,2762,2852,3143,3360,3363,3355,3172,2847,2704,2666,2612,2611,2626,2634,2680,2680,2666,2613,2531,2509,2456,2376,2340,2330,2326,2336,2347,2408,2456,2852,3153,3392,3318,3142,2895,2759,2699,2658,2677,2691,2710,2703,2652,2581,2498,2477,2411,2399,2361,2354,2360,2360,2376,2428,2458,2634,2892,3171,3338,3342,3264,3080,3017,2831,2701,2668,2649,2622,2647,2657,2670,2685,2645,2627,2546,2521,2489,2414,2351,2338,2323,2304,2298,2303,2302,2316,2365,2404,2586,2858,3120,3275,3287,3231,3181,3003,2936,2754,2701,2604,2588,2596,2648,2703,2713,2709,2680,2636,2553,2528,2451,2401,2387,2380,2363,2370,2374,2387,2431,2522,2740,2834,3114,3199,3265,3368,3299,3253,3057,2854,2791,2739,2690,2597,2568,2574,2579,2618,2627,2633,2591,2564,2541,2459,2394,2373,2361,2326,2314,2327,2400,2672,2966,3285,3336,3320,3283,3121,2925,2868,2810,2683,2616,2610,2606,2629,2659,2668,2670,2639,2577,2549,2472,2385,2368,2340,2332,2328,2331,2363,2489,2633,2911,3185,3249,3335,3320,3198,3135,3072,2874,2716,2674,2643,2589,2598,2606,2621,2652,2661,2661,6
2329,2327,2324,2323,2317,2311,2298,2282,2270,2254,2261,2337,2547,2873,2997,3117,3424,3495,3549,3598,3535,3499,3464,3341,3229,3193,3161,3041,2991,2927,2866,2787,2726,2629,2562,2472,2385,2347,2320,2317,2310,2302,2288,2279,2266,2252,2227,2208,2202,2196,2189,2192,2245,2344,2415,2506,2847,2979,3230,3338,3435,3616,3612,3535,3362,3318,3205,3171,3111,3088,3022,2993,2963,2951,2889,2868,2838,2698,2589,2552,2463,2418,2385,2370,2349,2343,2337,2339,2335,2336,2332,2326,2319,2302,2290,2282,2248,2240,2315,2438,2519,2808,2912,3164,3269,3168,3124,3072,2926,2880,2772,2743,2691,2680,2671,2671,2667,2638,2532,2439,2360,2334,2283,2269,2263,2250,2253,2258,2259,2266,2280,2297,2298,2303,2301,2303,2320,2432,2503,2782,2898,3010,3326,3506,3533,3537,3512,3448,3414,3286,3173,3135,3048,2975,2959,2939,2897,2864,2793,2709,2673,2579,2544,2443,2398,2384,2366,2359,2358,2356,2349,2352,2348,2343,2323,2321,2310,2319,2403,2625,2720,2831,3161,3417,3465,3503,3503,3485,3451,3344,3222,3190,3150,3055,2961,2911,2848,2722,2697,2597,2532,2444,2367,2352,2306,2288,2279,2280,2274,2279,2280,2275,2280,2274,2277,2264,2264,2249,2241,2224,2216,2211,2253,2286,2403,2490,2802,3040,3345,3409,3503,3447,3418,3372,3240,3190,3069,3029,2963,2940,2911,2841,2831,2786,2773,2701,2678,2584,2499,2421,2386,2346,2346,2337,2346,2341,2345,2333,2324,2313,2333,2365,2524,2695,2797,3089,3306,3341,3368,3249,3203,3079,2962,2935,2902,2841,2822,2798,2793,2779,2745,2709,2680,2627,2507,2482,2390,2358,2341,2337,2319,2321,2322,2327,2335,2330,2322,2314,2305,2334,2357,2537,2620,2836,2959,3076,3403,3580,3607,3586,3563,3526,3416,3370,3336,3257,3181,3070,2987,2957,2940,2869,2802,2768,2681,2642,2614,2513,2398,2377,2348,2323,2314,2311,2297,2300,2286,2271,2273,2264,2258,2249,2259,2365,2422,2697,3036,3154,3252,3501,3459,3341,3263,3155,2984,2908,2839,2824,2750,2608,2571,2477,2391,2374,2318,2311,2296,2283,2276,2275,2266,2270,2264,2260,2263,2248,2249,2234,2236,2223,2226,2220,2220,2216,2229,2241,2369,2435,2726,2834,3176,3400,3471,3405,3288,3240,3123,3083,3055,2969,2952,2901,2893,2854,2843,2808,2779,2755,2656,2557,2519,2492,2413,2353,2349,2331,2333,2328,2333,2333,2338,2335,2329,2320,2319,2309,2311,2379,2434,2495,2766,2867,2979,3257,3411,3429,3357,3157,3111,3002,2903,2881,2803,2773,2755,2743,2678,2657,2626,2541,2426,2355,2314,2287,2283,2288,2291,2301,2298,2304,2298,2296,2287,2277,2265,2261,2357,2414,2586,2695,2809,3299,3589,3522,3387,3199,3068,2937,2917,2850,2799,2731,2650,2615,2523,2406,2377,2321,2280,2276,2265,2256,2245,2247,2240,2232,2222,2209,2200,2179,2178,2163,2163,2148,2150,2193,2373,2462,2572,3098,3521,3588,3354,3134,2973,2879,2820,2714,2611,2571,2465,2429,2345,2284,2257,2243,2246,2245,2249,2249,2249,2246,2242,2237,2231,2225,2209,2207,2203,2224,2357,2524,2869,3250,3355,3446,3603,3536,3493,3326,3270,3160,3019,2906,2874,2865,2848,2835,2788,2702,2632,2525,2371,2314,2280,2270,2269,2274,2279,2287,2286,2288,2281,2281,2269,2262,2262,2361,2599,2965,3460,3662,3697,3690,3663,3536,3370,3317,3215,3084,2993,2930,2917,2899,2857,2817,2734,2633,2594,2489,2453,2370,2345,2296,2282,2261,2254,2254,2250,2251,2251,2246,2246,2236,2235,2221,2218,2203,2204,2260,2562,2680,3085,3224,3352,3636,3687,3723,3699,3571,3405,3352,3298,3165,3059,2989,2943,2928,2878,2806,2774,2741,2629,2591,2518,2483,2451,2369,2348,2316,2302,2292,2274,2271,2266,2267,2267,2267,2265,2264,2255,2252,2246,2236,2290,2336,2397,2671,3028,3146,3421,3512,3510,3392,3340,3287,3127,3080,3037,2937,2881,2872,2860,2858,2837,2824,2758,2730,2629,2530,2449,2393,2380,2356,2351,2349,2348,2354,2353,2350,2346,2341,2347,2432,2486,2726,2927,3028,3281,3395,3400,3366,3246,3013,2907,2841,2811,2806,2801,2768,2712,2686,2563,2470,2416,2357,2322,2316,2306,2306,2311,2319,2319,2317,2317,2349,2380,2555,2839,2945,3053,3325,3457,3460,3383,3345,3221,3182,3071,3007,2928,2868,2852,2782,2759,2683,2652,2524,2413,2358,2335,2312,2304,2301,2296,2290,2289,2281,2259,2253,2259,2277,2417,2491,2782,3097,3326,3396,3393,3321,3215,3176,3142,3033,3002,2910,2886,2818,2802,2781,2726,2651,2625,2593,2505,2420,2374,2358,2316,2294,2295,2294,2303,2309,2307,2311,2304,2297,2292,2291,2277,2335,2381,2690,3002,3105,3326,3398,3341,3230,3105,3072,2974,2951,2887,2862,2833,2791,2775,2749,2695,2668,2565,2536,2501,2424,2368,2360,2348,2337,2332,2335,2331,2332,2319,2303,2290,2302,2395,2611,2894,3154,3299,3295,3234,3163,3121,3087,2974,2884,2833,2765,2750,2700,2647,2620,2541,2509,2430,2403,2349,2309,2307,2299,2296,2292,2295,2294,2299,2296,2294,2287,2292,2299,2409,2468,2740,2957,3254,3448,3446,3370,3250,3213,3057,2948,2866,2800,2752,2690,2643,2561,2528,2446,2373,2358,2338,2307,2284,2284,2278,2276,2269,2266,2262,2244,2234,2219,2250,2414,2826,2943,3278,3463,3492,3468,3324,3287,3240,3125,3012,2983,2874,2808,2751,2645,2539,2442,2406,2329,2270,2262,2248,2237,2231,2235,2231,2239,2235,2239,2235,2218,2218,2206,2271,2314,2649,3099,3281,3423,3406,3385,3222,3091,3058,3019,2958,2939,2880,2874,2843,2838,2792,2777,2749,2666,2627,2531,2493,2416,2390,2346,2331,2320,2317,2321,2313,2308,2336,2375,2562,2869,2977,3094,3358,3479,3477,3470,3369,3238,3146,3019,2987,2950,2873,2836,2786,2741,2642,2606,2578,2511,2387,2357,2301,2259,2258,2249,2249,2246,2258,2263,2265,2252,2250,2255,2280,2428,2725,2840,2970,3318,3540,3567,3565,3532,3500,3363,3321,3271,3186,3148,3034,3005,2920,2901,2840,2825,2754,2731,2631,2599,2558,2454,2416,2339,2314,2274,2251,2255,2255,2265,2260,2259,2237,2233,2295,2338,2406,2677,3137,3241,3433,3466,3417,3373,3245,3106,3072,2966,2943,2913,2849,2820,2791,2755,2648,2612,2585,2491,2401,2367,2348,2345,2351,2352,2343,2367,2399,2549,2905,3008,3310,3367,3360,3260,3220,3070,3029,2906,2878,2808,2800,2776,2777,2752,2743,2673,2649,2547,2519,2422,2401,2335,2309,2304,2291,2280,2278,2287,2342,2513,2889,3175,3254,3374,3385,3330,3174,3136,3013,2886,2864,2803,2764,2731,2662,2544,2481,2399,2372,2320,2283,2279,2270,2258,2255,2251,2282,2398,2542,2633,2923,3235,3280,3313,3304,3223,3121,3082,3051,2947,2861,2834,2780,2747,2692,2629,2599,2575,2488,2464,2416,2391,2375,2327,2320,2293,2291,2278,2277,2273,2263,2262,2244,2241,2232,2243,2260,2409,2677,2788,2897,3207,3281,3408,3412,3365,3255,3218,3173,3057,2983,2880,2791,2777,2723,2664,2583,2506,2419,2376,2357,2351,2352,2348,2345,2352,2347,2350,2344,2327,2337,2352,2485,2719,2815,2907,3164,3220,3265,3284,3185,3060,3014,2901,2864,2787,2766,2730,2717,2710,2671,2616,2589,2567,2481,2458,2387,2371,2329,2323,2305,2303,2300,2303,2299,2302,2294,2295,2280,2282,2311,2348,2529,2619,2714,3038,3300,3361,3398,3430,3361,3330,3291,3180,3139,3029,2990,2899,2870,2849,2789,2694,2613,2528,2447,2388,2349,2343,2324,2318,2314,2314,2308,2308,2304,2299,2289,2281,2273,2269,2267,2277,2290,2411,2482,2570,2906,3276,3380,3470,3617,3607,3579,3468,3427,3303,3262,3145,3107,3005,2974,2898,2874,2850,2773,2745,2616,2515,2453,2379,2328,2301,2295,2291,2286,2286,2285,2282,2277,2275,2272,2261,2250,2247,2243,2237,2233,2231,2229,2283,2325,2546,2648,2762,3128,3241,3490,3535,3559,3538,3430,3387,3257,3218,3140,3107,3075,2994,2972,2953,2906,2855,2833,2806,2715,2573,2539,2459,2407,2396,2387,2376,2376,2376,2376,2376,2374,2364,2351,2328,2302,2296,2328,2363,2552,2639,2940,3039,3266,3310,3340,3323,3295,3173,3126,2990,2949,2846,2820,2769,2759,2741,2735,2705,2689,2619,2592,2504,2476,2449,2382,2365,2331,2326,2317,2317,2325,2331,2329,2327,2314,2309,2301,2303,2316,2431,2501,2585,2911,3257,3354,3432,3561,3500,3462,3288,3204,3124,3019,2986,2961,2890,2837,2801,2731,2581,2489,2417,2396,2382,2347,2333,2330,2332,2332,2335,2339,2335,2324,2321,2316,2328,2344,2486,2753,2866,2978,3301,3381,3525,3515,3421,3299,3182,3141,3037,3002,2922,2897,2838,2817,2756,2728,2645,2612,2584,2467,2418,2395,2379,2337,2318,2312,2304,2300,2295,2295,2279,2276,2268,2255,2256,2287,2326,2373,2605,2916,3024,3118,3326,3359,3369,3344,3243,3117,3008,2910,2885,2821,2806,2778,2731,2673,2565,2481,2418,2399,2387,2359,2352,2360,2361,2360,2378,2401,2478,2770,2861,3135,3315,3347,3358,3324,3292,3179,3059,3026,2991,2912,2858,2849,2837,2809,2760,2716,2631,2571,2482,2462,2404,2394,2370,2370,2363,2366,2364,2435,2741,3136,3253,3134,2996,2900,2828,2771,2733,2716,2667,2590,2565,2533,2454,2425,2405,2339,2308,2307,2290,2278,2318,2453,2528,2782,2879,3121,3183,3268,3275,3264,3206,3108,3079,2974,2945,2859,2842,2788,2764,2728,2666,2647,2619,2550,2522,2462,2439,2399,2383,2360,2349,2339,2330,2322,2313,2301,2288,2305,2425,2497,2759,3219,3338,3345,3274,3110,2993,2888,2853,2778,2715,2676,2659,2582,2502,2470,2393,2313,2288,2269,2250,2251,2244,2241,2235,2225,2217,2219,2208,2209,2202,2251,2426,2608,2939,3152,3399,3388,3295,3182,3151,3113,2994,2946,2930,2880,2843,2761,2705,2644,2546,2470,2444,2393,2375,2350,2340,2333,2328,2322,2316,2307,2308,2311,2333,2402,2594,2869,3184,3270,3275,3242,3181,3057,2907,2879,2792,2777,2755,2712,2680,2657,2593,2437,2363,2302,2293,2277,2252,2256,2250,2256,2256,2263,2260,2258,2263,2426,2698,3150,3330,3390,3442,3473,3463,3433,3330,3170,3127,3021,2919,2898,2830,2818,2762,2724,2618,2529,2492,2432,2382,2332,2307,2294,2285,2272,2271,2263,2259,2244,2239,2222,2222,2211,2267,2305,2369,2640,3138,3259,3506,3576,3519,3402,3314,3226,3099,3065,3024,14
2744,2711,2675,2665,2635,2627,2618,2590,2572,2554,2543,2526,2509,2495,2482,2475,2471,2466,2470,2472,2534,2567,2696,2846,2890,2929,3004,3004,3001,2997,2986,2982,2979,2975,2937,2922,2871,2842,2832,2796,2765,2751,2712,2674,2663,2650,2622,2612,2606,2586,2570,2564,2561,2548,2545,2533,2531,2519,2509,2499,2493,2487,2487,2487,2519,2541,2649,2790,2837,2946,2988,2983,2979,2964,2952,2930,2918,2879,2838,2826,2814,2771,2734,2721,2679,2647,2608,2578,2548,2542,2526,2521,2516,2501,2496,2481,2476,2461,2449,2444,2440,2432,2427,2425,2424,2449,2471,2581,2740,2797,2852,2978,3031,3036,3037,3028,3019,3016,3012,2988,2977,2947,2929,2913,2848,2820,2781,2744,2728,2684,2668,2626,2611,2575,2563,2535,2525,2505,2496,2470,2456,2449,2436,2426,2414,2412,2403,2400,2401,2401,2412,2421,2441,2541,2589,2760,2822,2879,2974,3011,3060,3065,3053,3049,3034,3026,3004,2961,2946,2893,2880,2826,2787,2746,2696,2647,2598,2570,2538,2519,2496,2480,2469,2455,2438,2431,2427,2424,2464,2681,2853,3034,3024,2985,2948,2882,2828,2788,2777,2713,2678,2660,2615,2599,2566,2548,2522,2496,2472,2465,2446,2442,2510,2701,2983,3084,3075,3041,2997,2910,2851,2804,2742,2687,2636,2584,2571,2554,2505,2497,2468,2450,2443,2440,2424,2414,2408,2407,2394,2393,2382,2386,2424,2490,2641,2803,2855,2893,2982,2974,2965,2938,2922,2877,2818,2801,2780,2735,2718,2707,2654,2608,2596,2567,2550,2516,2484,2464,2445,2434,2428,2415,2410,2406,2398,2398,2394,2401,2418,2496,2734,2894,2938,2945,2935,2938,2934,2926,2892,2834,2795,2764,2758,2741,2713,2707,2694,2666,2653,2646,2617,2602,2593,2590,2573,2565,2555,2548,2538,2522,2521,2514,2505,2500,2498,2491,2542,2681,2856,2954,2958,2946,2939,2922,2903,2890,2860,2847,2821,2812,2797,2787,2783,2757,2730,2717,2692,2664,2649,2635,2622,2601,2599,2589,2571,2561,2542,2538,2533,2608,2680,2810,2913,2969,2974,2969,2967,2941,2935,2892,2882,2839,2813,2802,2798,2767,2733,2725,2679,2642,2636,2604,2587,2577,2575,2554,2546,2536,2520,2521,2513,2509,2500,2502,2497,2497,2489,2495,2497,2557,2664,2802,2910,2939,2967,2969,2978,2975,2980,2978,2976,2964,2960,2907,2859,2853,2817,2812,2779,2773,2733,2724,2677,2668,2626,2620,2585,2580,2555,2554,2530,2520,2509,2489,2482,2473,2456,2457,2450,2447,2437,2441,2436,2442,2471,2499,2606,2703,2856,2957,2981,3004,3015,3013,2979,2930,2861,2803,2764,2701,2656,2604,2554,2526,2512,2492,2474,2476,2466,2463,2459,2462,2460,2460,2503,2525,2642,2781,2868,2929,2961,2968,2959,2957,2937,2926,2916,2913,2880,2835,2829,2796,2776,2732,2696,2671,2627,2584,2552,2529,2501,2494,2476,2473,2461,2456,2498,2690,2856,3006,3036,3038,3030,3027,3021,3013,2999,2965,2945,2900,2879,2843,2800,2792,2773,2735,2715,2676,2647,2606,2586,2551,2523,2504,2484,2467,2451,2445,2435,2438,2431,2436,2446,2466,2601,2759,2823,3006,3054,3063,3058,3047,3026,3026,3016,2975,2931,2908,2860,2802,2762,2728,2684,2645,2618,2580,2540,2501,2478,2459,2447,2444,2439,2442,2461,2546,2677,2837,2977,2986,2988,2949,2935,2913,2901,2897,2865,2837,2823,2801,2790,2767,2753,2722,2705,2666,2648,2614,2599,2572,2560,2535,2523,2514,2499,2500,2489,2488,2477,2478,2530,2639,2692,2740,2946,3040,3054,3042,3018,3005,2962,2944,2933,2900,2842,2826,2778,2770,2723,2713,2661,2651,2605,2575,2561,2557,2529,2527,2507,2506,2489,2490,2482,2470,2467,2460,2459,2461,2479,2496,2659,2837,2889,3025,3084,3078,3070,3061,3060,3038,3010,2978,2957,2902,2846,2806,2787,2747,2727,2683,2629,2589,2527,2503,2477,2475,2454,2447,2438,2440,2424,2419,2411,2413,2404,2400,2407,2481,2517,2680,2858,3001,3049,3064,3056,3036,3023,2995,2926,2866,2802,2774,2737,2656,2615,2571,2564,2532,2529,2517,2503,2485,2485,2477,2471,2463,2455,2448,2442,2428,2431,2432,2490,2609,2720,2893,2934,3022,3029,3032,3004,2985,2942,2892,2848,2829,2819,2775,2767,2721,2677,2622,2584,2543,2537,2509,2495,2486,2486,2471,2472,2460,2462,2448,2440,2440,2472,2536,2695,2930,2973,3068,3088,3082,3062,3060,3022,2975,2933,2865,2798,2788,2738,2694,2640,2597,2552,2545,2509,2504,2491,2475,2464,2453,2454,2444,2437,2421,2413,2400,2494,2703,2982,3066,3078,3068,3000,2900,2798,2689,2647,2559,2515,2445,2407,2381,2362,2358,2352,2347,2348,2340,2346,2344,2390,2493,2548,2597,2769,2814,2920,2933,2952,2945,2945,2929,2878,2809,2742,2697,2652,2590,2563,2530,2505,2493,2484,2474,2460,2462,2455,2452,2444,2445,2438,2442,2449,2515,2546,2591,2731,2872,2903,2934,2966,2966,2959,2960,2946,2918,2884,2866,2856,2814,2791,2780,2777,2750,2744,2710,2704,2666,2644,2623,2596,2582,2571,2550,2540,2531,2515,2516,2509,2508,2501,2504,2499,2502,2553,2579,2708,2753,2807,2934,3013,3021,3010,3012,3006,2994,2979,2925,2877,2853,2830,2801,2797,2782,2751,2698,2657,2629,2599,2572,2558,2548,2539,2530,2522,2514,2500,2497,2492,2483,2483,2478,2496,2533,2637,2833,2959,2981,3003,3017,3019,3016,3009,3003,2963,2922,2903,2868,2830,2824,2811,2763,2724,2696,2654,2605,2580,2552,2523,2502,2482,2465,2455,2448,2544,2728,2872,2969,2980,2989,2969,2958,2937,2915,2902,2870,2835,2830,2819,2794,2757,2731,2694,2668,2629,2601,2590,2568,2558,2542,2532,2513,2502,2493,2467,2461,2504,2604,2761,2867,2911,3011,3034,3035,3016,2990,2972,2939,2909,2853,2814,2799,2766,2714,2695,2655,2599,2584,2555,2543,2537,2507,2489,2479,2477,2456,2448,2440,2440,2425,2418,2411,2415,2435,2530,2632,2687,2810,2873,2924,3054,3062,3040,3008,2970,2949,2894,2855,2801,2736,2689,2677,2626,2563,2552,2503,2473,2453,2429,2412,2403,2392,2386,2381,2377,2382,2470,2617,2806,2862,2918,3018,3045,3039,3035,3011,3007,2992,2958,2915,2896,2844,2811,2757,2714,2670,2653,2607,2559,2522,2482,2454,2430,2423,2410,2415,2514,2712,2908,2975,2959,2925,2895,2860,2844,2802,2787,2755,2736,2703,2655,2614,2575,2547,2518,2504,2499,2496,2497,2492,2491,2480,2469,2468,2525,2647,2752,2948,3017,3019,3013,3002,2978,2941,2928,2884,2815,2798,2761,2729,2707,2672,2629,2615,2601,2562,2548,2539,2509,2482,2478,2463,2453,2449,2446,2438,2431,2431,2431,2472,2503,2638,2697,2756,2931,3042,3060,3070,3068,3047,3041,3033,3009,2968,2952,2933,2859,2828,2789,2752,2713,2697,2635,2579,2544,2534,2509,2494,2476,2463,2458,2454,2445,2442,2436,2435,2431,2429,2428,2427,2448,2583,2636,2817,2935,3050,3079,3069,3041,3006,2997,2952,2923,2895,2857,2821,2808,2796,2751,2735,2717,2668,2608,2594,2562,2535,2515,2497,2482,2475,2464,2457,2454,2440,2432,2433,2442,2510,2653,2710,2773,2941,3043,3056,3065,3050,3022,3004,2970,2960,2912,2896,2840,2825,2780,2769,2717,2655,2603,2571,2531,2517,2488,2477,2447,2432,2422,2416,2410,2405,2400,2397,2392,2398,2466,2504,2671,2732,2800,2971,3066,3080,3061,3035,3024,3016,2982,2936,2915,2897,2835,2787,2769,2757,2713,2701,2684,2637,2571,2554,2514,2478,2471,2461,2443,2426,2425,2419,2412,2408,2408,2400,2395,2391,2390,2381,2391,2401,2425,2606,2739,2806,2876,3039,3114,3114,3085,3075,3062,3033,2994,2980,2924,2884,2830,2781,2769,2724,2683,2633,2621,2574,2539,2526,2502,2491,2475,2466,2457,2450,2442,2436,2431,2426,2420,2415,2422,2484,2629,2883,2938,3029,3084,3079,3033,2985,2967,2955,2906,2894,2875,2806,2766,2717,2675,2653,2607,2558,2547,2531,2503,2477,2474,2465,2456,2448,2449,2438,2427,2429,2422,2442,2535,2695,2954,3011,3103,3117,3104,3096,3047,3037,2988,2941,2879,2802,2758,2711,2700,2649,2637,2584,2573,2554,2518,2478,2465,2450,2432,2424,2420,2406,2398,2404,2503,2548,2742,2808,2882,3050,3133,3137,3102,3048,3039,2971,2903,2884,2815,2778,2734,2671,2650,2602,2535,2516,2480,2445,2440,2428,2412,2397,2390,2393,2389,2395,2395,2404,2422,2517,2683,2755,2959,3107,3128,3145,3129,3097,3050,2998,2985,2963,2911,2847,2831,2808,2746,2707,2657,2645,2579,2533,2523,2506,2481,2452,2443,2433,2422,2419,2413,2405,2403,2449,2478,2525,2693,2958,3015,3099,3112,3084,3071,3011,2940,2928,2873,2827,2798,2756,2722,2675,2609,2566,2546,2511,2495,2475,2453,2444,2440,2427,2420,2420,2420,2434,2517,2752,2827,3016,3067,3136,3145,3113,3049,3038,2983,2969,2902,2858,2780,2736,2676,2656,2609,2553,2542,2522,2486,2450,2448,2436,2424,2415,2411,2398,2389,2404,2478,2645,2857,2932,2993,3129,3146,3160,3133,3105,3085,3073,3003,2932,2884,2821,2759,2745,2694,2647,2624,2609,2552,2538,2517,2475,2428,2416,2399,2380,2376,2374,2371,2362,2365,2377,2399,2573,2855,3035,3125,3128,3130,3093,3032,3019,2964,2906,2880,2819,2761,2698,2654,2598,2583,2516,2462,2430,2426,2405,2398,2394,2387,2409,2500,2669,2857,3026,3052,3042,2986,2942,2923,2910,2839,2780,2769,2724,2692,2650,2607,2541,2495,2454,2450,2430,2429,2422,2412,2410,2404,2424,2557,2606,2797,3015,3042,3080,3073,3068,3027,2986,2967,2955,2896,2839,2816,2766,2722,2673,2631,2580,2567,2509,2495,2454,2427,2409,2402,2393,2397,2452,2576,2634,2690,2870,3013,3028,3009,2980,2941,2897,2821,2765,2726,2713,2685,2671,2647,2611,2568,2557,2498,2462,2441,2426,2415,2411,2407,2412,2478,2670,2728,2898,3014,3020,2996,2958,2930,2916,2905,2843,2813,2799,2789,2753,2724,2716,2682,2634,2591,2565,2541,2520,2513,2507,2500,2490,2483,2491,2503,2594,2736,2789,2929,2962,2984,2999,2991,2956,2943,2907,2895,2864,2851,2817,2805,2774,2754,2746,2718,2705,2670,2657,2648,2614,2587,2579,2572,2552,2538,2533,2530,2518,2507,2502,2499,2529,2553,2667,2900,2980,2978,2966,2925,2883,2847,2776,2736,2721,2692,2649,2611,2568,2559,2534,2517,2512,2509,2497,2494,2491,2480,2470,2470,2501,2526,2689,2837,2880,2960,2974,2957,2924,2901,2891,2881,2843,26
