1,2,3,4,5,6,7,8,9,10,11,12,13,14,15,16,17,18,19,20,21,22,23,24,25,26,27,28,29,30,31,32,33,34,35,36,37,38,39,40,41,42,43,44,45,46,47,48,49,50,51,52,53,54,55,56,57,58,59,60,61,62,63,64,65,66,67,68,69,70,71,72,73,74,75,76,77,78,79,80,81,82,83,84,85,86,87,88,89,90,91,92,93,94,95,96,97,98,99,100,101,102,103,104,105,106,107,108,109,110,111,112,113,114,115,116,117,118,119,120,121,122,123,124,125,126,127,128,129,130,131,132,133,134,135,136,137,138,139,140,141,142,143,144,145,146,147,148,149,150,151,152,153,154,155,156,157,158,159,160,161,162,163,164,165,166,167,168,169,170,171,172,173,174,175,176,177,178,179,180,181,182,183,184,185,186,187,188,189,190,191,192,193,194,195,196,197,198,199,200,201,202,203,204,205,206,207,208,209,210,211,212,213,214,215,216,217,218,219,220,221,222,223,224,225,226,227,228,229,230,231,232,233,234,235,236,237,238,239,240,241,242,243,244,245,246,247,248,249,250,251,252,253,254,255,256,257,258,259,260,261,262,263,264,265,266,267,268,269,270,271,272,273,274,275,276,277,278,279,280,281,282,283,284,285,286,287,288,289,290,291,292,293,294,295,296,297,298,299,300,301,302,303,304,305,306,307,308,309,310,311,312,313,314,315,316,317,318,319,320,321,322,323,324,325,326,327,328,329,330,331,332,333,334,335,336,337,338,339,340,341,342,343,344,345,346,347,348,349,350,351,352,353,354,355,356,357,358,359,360,361,362,363,364,365,366,367,368,369,370,371,372,373,374,375,376,377,378,379,380,381,382,383,384,385,386,387,388,389,390,391,392,393,394,395,396,397,398,399,400,401,402,403,404,405,406,407,408,409,410,411,412,413,414,415,416,417,418,419,420,421,422,423,424,425,426,427,428,429,430,431,432,433,434,435,436,437,438,439,440,441,442,443,444,445,446,447,448,449,450,451,452,453,454,455,456,457,458,459,460,461,462,463,464,465,466,467,468,469,470,471,472,473,474,475,476,477,478,479,480,481,482,483,484,485,486,487,488,489,490,491,492,493,494,495,496,497,498,499,500,501,502,503,504,505,506,507,508,509,510,511,512,513,514,515,516,517,518,519,520,521,522,523,524,525,526,527,528,529,530,531,532,533,534,535,536,537,538,539,540,541,542,543,544,545,546,547,548,549,550,551,552,553,554,555,556,557,558,559,560,561,562,563,564,565,566,567,568,569,570,571,572,573,574,575,576,577,578,579,580,581,582,583,584,585,586,587,588,589,590,591,592,593,594,595,596,597,598,599,600,601,602,603,604,605,606,607,608,609,610,611,612,613,614,615,616,617,618,619,620,621,622,623,624,625,626,627,628,629,630,631,632,633,634,635,636,637,638,639,640,641,642,643,644,645,646,647,648,649,650,651,652,653,654,655,656,657,658,659,660,661,662,663,664,665,666,667,668,669,670,671,672,673,674,675,676,677,678,679,680,681,682,683,684,685,686,687,688,689,690,691,692,693,694,695,696,697,698,699,700,701,702,703,704,705,706,707,708,709,710,711,712,713,714,715,716,717,718,719,720,721,722,723,724,725,726,727,728,729,730,731,732,733,734,735,736,737,738,739,740,741,742,743,744,745,746,747,748,749,750,751,752,753,754,755,756,757,758,759,760,761,762,763,764,765,766,767,768,769,770,771,772,773,774,775,776,777,778,779,780,781,782,783,784,785,786,787,788,789,790,791,792,793,794,795,796,797,798,799,800,801,802,803,804,805,806,807,808,809,810,811,812,813,814,815,816,817,818,819,820,821,822,823,824,825,826,827,828,829,830,831,832,833,834,835,836,837,838,839,840,841,842,843,844,845,846,847,848,849,850,851,852,853,854,855,856,857,858,859,860,861,862,863,864,865,866,867,868,869,870,871,872,873,874,875,876,877,878,879,880,881,882,883,884,885,886,887,888,889,890,891,892,893,894,895,896,897,898,899,900,901,902,903,904,905,906,907,908,909,910,911,912,913,914,915,916,917,918,919,920,921,922,923,924,925,926,927,928,929,930,931,932,933,934,935,936,937,938,939,940,941,942,943,944,945,946,947,948,949,950,951,952,953,954,955,956,957,958,959,960,961,962,963,964,965,966,967,968,969,970,971,972,973,974,975,976,977,978,979,980,981,982,983,984,985,986,987,988,989,990,991,992,993,994,995,996,997,998,999,1000,1001,1002,1003,1004,1005,1006,1007,1008,1009,1010,1011,1012,1013,1014,1015,1016,1017,1018,1019,1020,1021,1022,1023,1024,1025,1026,1027,1028,1029,1030,1031,1032,1033,1034,1035,1036,1037,1038,1039,1040,1041,1042,1043,1044,1045,1046,1047,1048,1049,1050,1051,1052,1053,1054,1055,1056,1057,1058,1059,1060,1061,1062,1063,1064,1065,1066,1067,1068,1069,1070,1071,1072,1073,1074,1075,1076,1077,1078,1079,1080,1081,1082,1083,1084,1085,1086,1087,1088,1089,1090,1091,1092,1093,1094,1095,1096,1097,1098,1099,1100,1101,1102,1103,1104,1105,1106,1107,1108,1109,1110,1111,1112,1113,1114,1115,1116,1117,1118,1119,1120,1121,1122,1123,1124,1125,1126,1127,1128,1129,1130,1131,1132,1133,1134,1135,1136,1137,1138,1139,1140,1141,1142,1143,1144,1145,1146,1147,1148,1149,1150,1151,1152,1153,1154,1155,1156,1157,1158,1159,1160,1161,1162,1163,1164,1165,1166,1167,1168,1169,1170,1171,1172,1173,1174,1175,1176,1177,1178,1179,1180,1181,1182,1183,1184,1185,1186,1187,1188,1189,1190,1191,1192,1193,1194,1195,1196,1197,1198,1199,1200,1201,1202,1203,1204,1205,1206,1207,1208,1209,1210,1211,1212,1213,1214,1215,1216,1217,1218,1219,1220,1221,1222,1223,1224,1225,1226,1227,1228,1229,1230,1231,1232,1233,1234,1235,1236,1237,1238,1239,1240,1241,1242,1243,1244,1245,1246,1247,1248,1249,1250,1251,1252,1253,1254,1255,1256,1257,1258,1259,1260,1261,1262,1263,1264,1265,1266,1267,1268,1269,1270,1271,1272,1273,1274,1275,1276,1277,1278,1279,1280,1281,1282,1283,1284,1285,1286,1287,1288,1289,1290,1291,1292,1293,1294,1295,1296,1297,1298,1299,1300,1301,1302,1303,1304,1305,1306,1307,1308,1309,1310,1311,1312,1313,1314,1315,1316,1317,1318,1319,1320,1321,1322,1323,1324,1325,1326,1327,1328,1329,1330,1331,1332,1333,1334,1335,1336,1337,1338,1339,1340,1341,1342,1343,1344,1345,1346,1347,1348,1349,1350,1351,1352,1353,1354,1355,1356,1357,1358,1359,1360,1361,1362,1363,1364,1365,1366,1367,1368,1369,1370,1371,1372,1373,1374,1375,1376,1377,1378,1379,1380,1381,1382,1383,1384,1385,1386,1387,1388,1389,1390,1391,1392,1393,1394,1395,1396,1397,1398,1399,1400,1401,1402,1403,1404,1405,1406,1407,1408,1409,1410,1411,1412,1413,1414,1415,1416,1417,1418,1419,1420,1421,1422,1423,1424,1425,1426,1427,1428,1429,1430,1431,1432,1433,1434,1435,1436,1437,1438,1439,1440,1441,1442,1443,1444,1445,1446,1447,1448,1449,1450,1451,1452,1453,1454,1455,1456,1457,1458,1459,1460,1461,1462,1463,1464,1465,1466,1467,1468,1469,1470,1471,1472,1473,1474,1475,1476,1477,1478,1479,1480,1481,1482,1483,1484,1485,1486,1487,1488,1489,1490,1491,1492,1493,1494,1495,1496,1497,1498,1499,1500,1501,1502,1503,1504,1505,1506,1507,1508,1509,1510,1511,1512,1513,1514,1515,1516,1517,1518,1519,1520,1521,1522,1523,1524,1525,1526,1527,1528,1529,1530,1531,1532,1533,1534,1535,1536,1537,1538,1539,1540,1541,1542,1543,1544,1545,1546,1547,1548,1549,1550,1551,1552,1553,1554,1555,1556,1557,1558,1559,1560,1561,1562,1563,1564,1565,1566,1567,1568,1569,1570,1571,1572,1573,1574,1575,1576,1577,1578,1579,1580,1581,1582,1583,1584,1585,1586,1587,1588,1589,1590,1591,1592,1593,1594,1595,1596,1597,1598,1599,1600,1601,1602,1603,1604,1605,1606,1607,1608,1609,1610,1611,1612,1613,1614,1615,1616,1617,1618,1619,1620,1621,1622,1623,1624,1625,1626,1627,1628,1629,1630,1631,1632,1633,1634,1635,1636,1637,1638,1639,1640,1641,1642,1643,1644,1645,1646,1647,1648,1649,1650,1651,1652,1653,1654,1655,1656,1657,1658,1659,1660,1661,1662,1663,1664,1665,1666,1667,1668,1669,1670,1671,1672,1673,1674,1675,1676,1677,1678,1679,1680,1681,1682,1683,1684,1685,1686,1687,1688,1689,1690,1691,1692,1693,1694,1695,1696,1697,1698,1699,1700,1701,1702,1703,1704,1705,1706,1707,1708,1709,1710,1711,1712,1713,1714,1715,1716,1717,1718,1719,1720,1721,1722,1723,1724,1725,1726,1727,1728,1729,1730,1731,1732,1733,1734,1735,1736,1737,1738,1739,1740,1741,1742,1743,1744,1745,1746,1747,1748,1749,1750,1751,1752,1753,1754,1755,1756,1757,1758,1759,1760,1761,1762,1763,1764,1765,1766,1767,1768,1769,1770,1771,1772,1773,1774,1775,1776,1777,1778,1779,1780,1781,1782,1783,1784,1785,1786,1787,1788,1789,1790,1791,1792,1793,1794,1795,1796,1797,1798,1799,1800,stress_score
2664,2970,3073,3260,3335,3387,3436,3415,3306,3258,3135,3094,2996,2962,2879,2849,2827,2765,2754,2730,2716,2709,2667,2617,2594,2576,2509,2455,2435,2423,2382,2375,2363,2349,2339,2342,2339,2346,2346,2350,2348,2353,2349,2351,2348,2350,2348,2352,2351,2354,2358,2392,2527,2596,2684,2990,3290,3361,3420,3470,3455,3391,3346,3304,3179,3078,3045,3017,2931,2906,2879,2837,2820,2776,2767,2754,2719,2703,2654,2634,2578,2521,2506,2462,2452,2439,2416,2408,2399,2398,2395,2395,2396,2398,2398,2400,2399,2399,2401,2399,2400,2399,2399,2401,2400,2410,2420,2441,2571,2816,2913,3016,3283,3417,3423,3414,3306,3164,3119,3078,2973,2946,2919,2840,2806,2796,2790,2779,2769,2749,2737,2720,2664,2596,2576,2553,2482,2446,2435,2415,2409,2407,2402,2405,2405,2408,2413,2418,2417,2418,2413,2412,2419,2430,2454,2596,2671,2755,3043,3136,3347,3383,3384,3276,3232,3187,3062,2961,2934,2906,2835,2815,2783,2771,2745,2739,2731,2700,2686,2651,2633,2613,2550,2530,2475,2460,2421,2411,2394,2389,2384,2376,2374,2374,2374,2374,2374,2374,2375,2374,2374,2374,2374,2375,2376,2375,2372,2351,2340,2317,2310,2310,2390,2450,2527,2839,3174,3264,3336,3427,3418,3357,3313,3266,3129,3090,3023,2967,2942,2896,2857,2809,2778,2771,2765,2738,2726,2696,2679,2660,2598,2577,2537,2520,2503,2461,2450,2427,2419,2416,2415,2416,2421,2429,2430,2436,2438,2439,2438,2439,2438,2437,2436,2438,2443,2452,2456,2507,2543,2595,2934,3043,3269,3373,3587,3617,3579,3535,3353,3290,3172,3119,3071,2960,2934,2909,2860,2848,2835,2831,2826,2813,2804,2782,2768,2749,2687,2661,2612,2588,2562,2498,2477,2445,2433,2422,2404,2399,2398,2398,2402,2409,2413,2414,2422,2423,2425,2423,2428,2484,2528,2584,2838,2940,3048,3338,3492,3499,3368,3197,3139,2997,2956,2863,2837,2784,2769,2746,2738,2733,2708,2697,2679,2621,2545,2521,2449,2430,2377,2366,2354,2332,2319,2321,2319,2326,2331,2337,2341,2345,2350,2352,2355,2382,2406,2574,2869,2989,3430,3503,3593,3577,3549,3395,3227,3130,3013,2928,2879,2822,2788,2767,2728,2654,2634,2559,2538,2512,2451,2397,2371,2349,2336,2336,2338,2340,2343,2344,2347,2354,2360,2358,2362,2396,2422,2695,3044,3166,3492,3634,3609,3397,3337,3274,3122,2990,2964,2923,2879,2864,2834,2820,2777,2756,2737,2660,2637,2552,2530,2459,2443,2394,2386,2371,2364,2365,2363,2370,2379,2387,2394,2399,2395,2397,2415,2444,2480,2692,2785,2997,3108,3206,3423,3450,3446,3419,3374,3209,3039,2994,2947,2844,2791,2737,2716,2709,2708,2690,2683,2655,2633,2614,2538,2516,2466,2439,2420,2361,2324,2310,2304,2286,2287,2283,2290,2290,2298,2305,2311,2316,2324,2339,2357,2502,2576,2772,2887,3000,3319,3393,3481,3495,3482,3370,3313,3151,3099,2974,2934,2902,2804,2781,2736,2716,2705,2684,2672,2645,2638,2608,2586,2569,2491,2470,2421,2394,2376,2319,2310,2278,2275,2261,2264,2263,2268,2273,2279,2285,2285,2291,2294,2298,2295,2300,2295,2293,2299,2300,2380,2432,2703,2816,3200,3313,3497,3559,3590,3569,3523,3478,3303,3146,3094,3054,2931,2900,2840,2811,2794,2747,2741,2722,2708,2701,2652,2637,2595,2569,2551,2483,2469,2447,2406,2370,2366,2355,2344,2337,2333,2333,2341,2345,2346,2353,2350,2351,2346,2356,2364,2474,2535,2817,2923,3250,3330,3465,3461,3362,3303,3133,3074,2941,2900,2870,2785,2768,2718,2712,2687,2685,2653,2644,2587,2571,2503,2487,2429,2417,2398,2366,2352,2335,2332,2323,2318,2314,2315,2321,2319,2328,2325,2328,2324,2337,2360,2488,2563,2643,2940,3034,3128,3298,3321,3305,3270,3235,3087,2993,2910,2878,2810,2753,2679,2667,2631,2621,2612,2609,2572,2561,2539,2485,2425,2415,2397,2373,2352,2354,2346,2345,2337,2342,2337,2349,2348,2368,2369,2381,2391,2399,2405,2407,2405,2425,2439,2572,2639,2930,3034,3341,3412,3472,3506,3485,3338,3286,3177,3121,3078,2956,2928,2870,2839,2821,2765,2760,2750,2744,2749,2749,2755,2751,2751,2740,2717,2704,2681,2613,2581,2525,2502,2473,2423,2404,2379,2375,2364,2365,2364,2378,2394,2401,2444,2450,2463,2468,2472,2467,2459,2461,2450,2454,2449,2457,2504,2546,2726,2813,3083,3174,3245,3391,3368,3300,3183,3138,3046,3015,2951,2875,2854,2823,2750,2719,2668,2647,2617,2550,2522,2472,2454,2439,2431,2437,2428,2411,2392,2381,2312,2294,2249,2222,2208,2158,2153,2137,2144,2157,2161,2180,2255,2436,2512,2610,2914,3022,3254,3306,3326,3309,3235,3184,3142,2997,2962,2919,2832,2787,2757,2741,2732,2725,2723,2712,2684,2662,2624,2608,2580,2521,2495,2458,2448,2428,2401,2388,2386,2374,2379,2385,2385,2396,2416,2430,2451,2463,2472,2480,2500,2528,2664,2742,2821,3117,3370,3433,3466,3473,3438,3300,3241,3091,3040,2962,2933,2896,2828,2804,2771,2759,2748,2738,2737,2702,2659,2633,2619,2575,2532,2491,2467,2457,2404,2376,2371,2364,2370,2369,2377,2382,2380,2389,2391,2399,2398,2404,2397,2401,2403,2404,2424,2529,2600,2870,2984,3295,3386,3448,3539,3459,3419,3362,3215,3079,3048,3010,2932,2903,2863,2852,2830,2801,2784,2780,2736,2726,2663,2648,2574,2557,2488,2475,2420,2392,2377,2376,2359,2350,2357,2357,2367,2365,2384,2384,2392,2402,2400,2409,2404,2403,2408,2402,2414,2418,2514,2566,2827,2929,3158,3276,3371,3578,3596,3554,3501,3325,3257,3090,3037,2935,2905,2891,2863,2849,2846,2840,2844,2823,2819,2765,2750,2670,2649,2567,2550,2481,2469,2420,2415,2401,2389,2390,2381,2388,2390,2399,2401,2408,2404,2421,2427,2481,2531,2585,2839,2935,3141,3242,3318,3466,3469,3434,3400,3345,3235,3122,3075,2934,2904,2814,2800,2754,2744,2734,2736,2707,2700,2666,2639,2623,2543,2524,2475,2447,2432,2373,2366,2348,2326,2314,2306,2310,2303,2311,2314,2320,2316,2329,2328,2335,2330,2346,2351,2378,2515,2796,2905,3030,3264,3452,3564,3581,3588,3487,3439,3325,3261,3210,3058,2954,2918,2852,2828,2818,2781,2777,2742,2734,2676,2661,2584,2565,2487,2470,2406,2395,2348,2342,2328,2314,2300,2305,2300,2309,2305,2309,2318,2315,2327,2324,2328,2336,2332,2340,2358,2388,2420,2630,2840,3202,3509,3568,3613,3598,3510,3459,3395,3339,3165,3070,3036,2995,2967,2910,2867,2817,2811,2777,2772,2754,2711,2684,2640,2621,2590,2522,2449,2410,2369,2352,2333,2332,2321,2321,2315,2321,2325,2322,2335,2332,2345,2342,2353,2350,2358,2364,2419,2470,2690,2798,3026,3138,3255,3436,3494,3539,3523,3376,3306,3246,3058,3012,2886,2863,2800,2782,2776,2758,2755,2740,2692,2665,2613,2591,2560,2489,2461,2421,2409,2388,2357,2330,2332,2324,2328,2330,2332,2342,2340,2351,2413,2464,2600,2681,2783,3092,3192,3343,3386,3417,3378,3340,3235,3172,3118,2951,2909,2863,2766,2735,2695,2686,2670,2658,2652,2626,2586,2518,2499,2472,2411,2389,2355,2345,2328,2303,2292,2292,2278,2283,2281,2288,2292,2300,2305,2303,2311,2309,2361,2396,2605,2697,2809,3144,3250,3448,3478,3431,3392,3284,3170,3009,2890,2851,2823,2741,2727,2685,2681,2656,2652,2637,2597,2572,2509,2481,2420,2395,2348,2330,2303,2291,2280,2274,2276,2277,2281,2295,2302,2308,2321,2318,2324,2325,2334,2369,2400,2453,2690,2801,3034,3146,3258,3481,3518,3525,3395,3282,3171,3071,3031,2917,2889,2857,2788,2767,2740,2734,2721,2697,2655,2641,2619,2553,2526,2505,2434,2385,2367,2341,2332,2326,2322,2330,2336,2343,2355,2353,2357,2356,2359,2356,2358,2358,2364,2363,2369,2408,2446,2638,2736,3076,3198,3484,3547,3581,3557,3511,3340,3275,3159,3111,3060,2951,2919,2871,2837,2813,2794,2791,2781,2751,2733,2718,2653,2635,2592,2569,2553,2518,2488,2451,2444,2422,2420,2414,2410,2413,2413,2417,2426,2429,2432,2429,2433,2436,2474,2513,2559,2796,3109,3214,3304,3483,3497,3470,3434,3381,3202,3139,2984,2938,2840,2794,2777,2750,2738,2710,2636,2564,2475,2440,2391,2371,2362,2370,2378,2386,2393,2403,2486,2788,3206,3295,3467,3349,3132,2915,2822,2729,2706,2693,2652,2599,2484,2408,2355,2331,2328,2344,2364,2374,2386,2395,2397,2444,2605,3011,3428,3495,3550,3424,3161,2995,2860,2785,2751,2717,2676,2608,2542,2496,2419,2366,2344,2331,2332,2334,2341,2348,2352,2355,2362,2369,2381,2480,2538,2921,3278,3590,3613,3513,3345,3236,3058,2926,2847,2785,2743,2702,2664,2593,2545,2479,2411,2372,2358,2356,2362,2371,2379,2379,2385,2387,2387,2396,2433,2773,3229,3542,3512,3343,3156,3005,2963,2873,2850,2808,2798,2788,2782,2766,2752,2702,2677,2655,2579,2557,2514,2493,2478,2436,2428,2414,2406,2404,2395,2399,2398,2402,2407,2411,2412,2410,2413,2439,2468,2505,2800,3003,3203,3358,3411,3441,3419,3378,3226,3168,3062,3017,2969,2856,2822,2796,2731,2720,2703,2696,2695,2682,2679,2638,2623,2557,2494,2471,2455,2421,2404,2374,2363,2359,2349,2344,2346,2343,2348,2357,2367,2375,2376,2383,2387,2399,2410,2524,2756,2858,3163,3254,3324,3426,3416,3315,3262,3113,3064,2981,2946,2908,2817,2786,2737,2700,2669,2653,2620,2579,2558,2542,2476,2420,2399,2386,2344,2338,2327,2320,2322,2330,2339,2347,2357,2363,2379,2474,2538,2607,2889,3169,3248,3300,3354,3331,3255,3211,3156,3012,2964,2884,2854,2819,2742,2703,2678,2663,2644,2641,2606,2561,2538,2521,2456,2406,2387,2377,2355,2340,2332,2327,2330,2334,2331,2339,2339,2346,2350,2355,2361,2401,2439,2621,2712,2802,3103,3312,3349,3334,3305,3258,3113,3060,2970,2934,2892,2800,2768,2722,2687,2665,2653,2627,2595,2573,2536,2520,2495,2441,2418,2406,2361,2339,2330,2331,2328,2325,2338,2338,2348,2358,2366,2376,2380,2397,2413,2493,2560,2818,2926,3026,3304,3415,3417,3392,3266,3205,3097,3052,3001,2891,2854,2801,2784,2760,2727,2715,2714,2690,2671,2641,2604,2578,2522,2497,2482,2449,2423,2404,2391,2390,2384,2378,2383,2379,2384,2392,2394,2400,2398,2405,2443,2528,2664,2753,3029,3123,3301,3330,3289,3256,3204,3099,3053,2998,2875,2833,2771,2721,2675,2655,6
2418,2417,2415,2413,2404,2400,2399,2428,2545,2604,2672,2896,3080,3116,3139,3125,3036,3001,2965,2865,2839,2814,2765,2743,2742,2740,2740,2740,2717,2704,2686,2620,2540,2515,2489,2427,2395,2381,2371,2360,2344,2339,2335,2333,2337,2337,2340,2342,2343,2342,2376,2402,2548,2611,2829,2895,2956,3035,3051,3057,2993,2959,2841,2806,2740,2710,2689,2641,2635,2628,2626,2631,2638,2640,2620,2611,2555,2536,2512,2448,2409,2363,2338,2322,2324,2321,2326,2330,2336,2336,2348,2349,2353,2353,2354,2355,2366,2445,2615,2681,2756,2894,2951,3053,3057,3052,3014,2982,2892,2860,2836,2771,2759,2745,2730,2728,2725,2729,2728,2717,2685,2666,2612,2574,2553,2538,2520,2482,2455,2452,2445,2441,2437,2441,2440,2438,2440,2437,2439,2434,2434,2430,2430,2428,2468,2494,2639,2699,2769,2901,2960,3016,3095,3099,3042,2955,2923,2900,2835,2825,2799,2800,2797,2807,2805,2808,2788,2780,2764,2717,2658,2644,2623,2593,2584,2551,2548,2538,2534,2529,2531,2531,2537,2536,2524,2516,2507,2505,2486,2488,2502,2518,2552,2643,2698,2908,2973,3042,3165,3177,3154,3132,3031,3002,2967,2910,2868,2834,2824,2820,2826,2843,2842,2837,2825,2796,2784,2762,2702,2678,2624,2604,2571,2560,2557,2550,2545,2558,2570,2592,2626,2631,2644,2672,2715,2749,2839,2892,2961,3176,3365,3400,3429,3424,3407,3307,3274,3159,3096,3029,2984,2981,2972,2969,2952,2948,2933,2893,2857,2819,2796,2760,2728,2688,2672,2642,2623,2609,2604,2591,2557,2554,2533,2566,2589,2632,2785,2981,3036,3091,3157,3168,3156,3131,3109,3047,3011,2923,2891,2873,2818,2814,2803,2813,2824,2828,2831,2799,2751,2725,2665,2600,2587,2565,2539,2533,2519,2517,2499,2501,2495,2499,2506,2508,2577,2607,2655,2757,2808,2978,3017,3058,3103,3086,3061,2992,2959,2936,2854,2797,2775,2768,2748,2735,2736,2716,2716,2686,2649,2626,2612,2544,2528,2503,2457,2416,2414,2402,2393,2374,2370,2381,2421,2537,2579,2728,2763,2815,2832,2826,2780,2745,2717,2605,2517,2487,2471,2442,2428,2428,2425,2432,2436,2429,2409,2389,2377,2310,2291,2263,2183,2146,2130,2118,2112,2120,2119,2140,2153,2154,2164,2164,2172,2181,2212,2241,2269,2354,2456,2615,2688,2711,2707,2637,2562,2533,2486,2472,2469,2468,2494,2497,2518,2514,2504,2490,2485,2442,2409,2395,2391,2368,2367,2363,2369,2373,2388,2386,2394,2394,2399,2393,2391,2385,2383,2391,2394,2467,2543,2673,2790,2824,2825,2809,2777,2761,2698,2687,2668,2652,2646,2654,2669,2675,2719,2727,2742,2755,2754,2743,2740,2708,2690,2680,2664,2667,2661,2660,2667,2666,2673,2671,2682,2685,2681,2686,2682,2680,2684,2676,2682,2682,2707,2758,2873,2910,3023,3043,3062,3050,2991,2963,2899,2877,2845,2835,2837,2842,2843,2872,2877,2889,2897,2900,2869,2826,2816,2793,2778,2772,2750,2750,2743,2746,2744,2750,2753,2753,2748,2750,2738,2738,2731,2721,2715,2726,2737,2853,2968,2998,3043,3056,3026,3007,2978,2922,2897,2868,2848,2807,2789,2765,2759,2762,2765,2767,2786,2786,2791,2787,2774,2741,2732,2696,2675,2667,2665,2657,2651,2652,2646,2646,2640,2642,2637,2636,2624,2624,2617,2607,2591,2591,2589,2634,2727,2769,2806,2916,2934,2948,2931,2864,2834,2764,2740,2710,2701,2691,2688,2688,2708,2713,2733,2733,2737,2722,2717,2697,2683,2676,2645,2629,2621,2621,2612,2613,2612,2608,2612,2610,2614,2612,2616,2615,2617,2615,2617,2614,2618,2621,2676,2780,2826,2867,2949,2987,3033,3034,3020,2958,2929,2905,2836,2820,2779,2774,2769,2771,2784,2793,2804,2806,2801,2786,2752,2724,2712,2704,2690,2681,2676,2670,2664,2659,2656,2658,2656,2658,2656,2654,2646,2642,2639,2634,2631,2633,2661,2710,2743,2778,2894,2927,2985,2985,2979,2944,2920,2845,2822,2770,2757,2742,2742,2746,2763,2772,2791,2796,2794,2790,2784,2751,2739,2700,2689,2657,2634,2623,2613,2612,2610,2611,2611,2614,2615,2614,2616,2614,2613,2611,2606,2614,2627,2646,2745,2875,2917,2955,3023,3025,3021,2990,2944,2872,2852,2804,2784,2783,2784,2789,2794,2808,2810,2810,2797,2764,2750,2736,2691,2678,2664,2639,2619,2598,2592,2582,2576,2574,2572,2568,2559,2556,2551,2538,2532,2515,2512,2530,2550,2648,2690,2822,2860,2890,2929,2914,2877,2814,2794,2748,2737,2721,2720,2719,2728,2730,2736,2733,2722,2702,2662,2645,2599,2582,2544,2531,2505,2498,2494,2482,2479,2478,2479,2476,2474,2472,2472,2464,2463,2452,2453,2476,2563,2603,2788,2832,2864,2907,2916,2891,2876,2854,2800,2754,2746,2736,2727,2724,2732,2732,2736,2736,2734,2711,2678,2663,2651,2610,2601,2564,2544,2537,2533,2535,2531,2531,2534,2530,2532,2530,2525,2526,2523,2519,2511,2513,2511,2533,2613,2803,2858,2951,2984,3013,3026,3028,3022,3005,2949,2927,2877,2862,2842,2832,2830,2828,2836,2835,2831,2822,2792,2743,2729,2710,2676,2664,2648,2637,2602,2582,2575,2574,2563,2561,2557,2549,2544,2539,2528,2521,2515,2514,2524,2543,2564,2636,2684,2842,2899,2944,3043,3051,3035,3013,2969,2923,2868,2850,2824,2816,2812,2815,2811,2813,2787,2751,2731,2719,2683,2651,2605,2598,2576,2561,2540,2540,2524,2525,2519,2515,2502,2504,2490,2476,2478,2464,2466,2464,2478,2553,2600,2647,2831,2889,3043,3068,3093,3078,3017,2919,2894,2853,2838,2827,2821,2822,2828,2824,2824,2813,2808,2763,2711,2685,2670,2610,2570,2552,2546,2518,2505,2509,2504,2505,2505,2498,2492,2476,2467,2460,2491,2609,2726,2924,3091,3145,3136,3122,3018,2938,2922,2873,2857,2858,2852,2857,2858,2858,2839,2832,2803,2763,2693,2675,2609,2595,2545,2536,2504,2502,2483,2484,2480,2475,2463,2465,2460,2452,2454,2439,2440,2432,2428,2437,2459,2482,2627,2685,2899,3109,3127,3127,3102,3046,2982,2897,2867,2817,2800,2798,2784,2794,2791,2796,2776,2741,2718,2704,2635,2576,2552,2540,2491,2485,2452,2451,2433,2435,2426,2425,2417,2418,2410,2406,2402,2402,2394,2411,2481,2533,2583,2795,2866,2944,3112,3174,3162,3099,3061,2968,2931,2908,2842,2819,2814,2824,2813,2729,2637,2552,2491,2455,2442,2432,2429,2424,2423,2642,3008,3182,3148,2982,2869,2819,2824,2836,2787,2635,2534,2491,2475,2475,2485,2484,2480,2599,2862,3143,3242,3131,2952,2851,2847,2831,2739,2638,2525,2426,2407,2401,2401,2384,2377,2567,3024,3185,3097,2952,2829,2794,2792,2771,2630,2531,2437,2405,2420,2442,2459,2440,2650,3035,3244,3035,2821,2779,2767,2659,2543,2418,2387,2378,2377,2362,2380,2718,3127,3242,3115,2918,2817,2799,2766,2690,2568,2438,2408,2402,2400,2396,2387,2391,2575,2822,3088,3272,3301,3220,3176,3049,3006,2973,2889,2874,2851,2840,2838,2836,2815,2761,2740,2660,2635,2557,2537,2479,2466,2451,2427,2420,2412,2410,2413,2412,2415,2413,2414,2411,2408,2398,2399,2429,2505,2712,2987,3080,3160,3231,3337,3298,3261,3220,3079,2963,2931,2862,2857,2858,2862,2863,2859,2847,2796,2714,2685,2594,2566,2489,2469,2448,2407,2385,2383,2386,2390,2394,2409,2412,2423,2425,2428,2429,2429,2464,2494,2538,2658,3001,3089,3291,3326,3344,3342,3262,3117,3018,2901,2852,2826,2823,2830,2845,2819,2801,2752,2722,2692,2658,2565,2486,2416,2405,2382,2382,2384,2391,2393,2399,2400,2399,2395,2405,2423,2551,2700,2789,3080,3303,3343,3366,3331,3203,3153,3104,2973,2887,2869,2856,2843,2842,2843,2846,2845,2814,2796,2719,2688,2593,2563,2534,2460,2409,2397,2375,2370,2368,2370,2375,2376,2376,2377,2372,2370,2367,2400,2547,2622,2912,3210,3288,3408,3410,3393,3231,3133,3088,3045,2950,2927,2890,2883,2876,2867,2859,2844,2781,2752,2656,2621,2527,2498,2430,2412,2378,2369,2365,2357,2363,2363,2368,2372,2378,2378,2374,2370,2368,2354,2376,2403,2449,2667,3186,3270,3418,3348,3300,3196,3145,3005,2971,2939,2894,2881,2867,2855,2851,2835,2794,2768,2685,2651,2557,2499,2426,2410,2368,2351,2345,2346,2346,2351,2355,2358,2356,2357,2354,2347,2332,2330,2325,2342,2459,2532,2813,2926,3317,3374,3429,3429,3407,3278,3222,3109,3009,2905,2880,2852,2850,2847,2865,2876,2864,2812,2783,2689,2652,2620,2525,2500,2435,2400,2390,2381,2377,2380,2380,2383,2381,2382,2372,2353,2356,2463,2599,2683,2782,3086,3178,3345,3363,3357,3262,3093,3039,2889,2819,2797,2758,2769,2774,2785,2791,2752,2726,2641,2604,2506,2471,2397,2373,2360,2321,2319,2309,2315,2319,2326,2332,2338,2336,2339,2329,2329,2332,2354,2492,2575,2876,2995,3297,3420,3447,3413,3268,3205,3040,2988,2888,2833,2831,2825,2837,2835,2820,2763,2729,2701,2593,2497,2463,2397,2375,2344,2333,2333,2326,2331,2335,2342,2348,2345,2350,2347,2349,2337,2337,2342,2368,2521,2610,2928,3052,3360,3434,3507,3494,3355,3300,3236,3019,2982,2895,2865,2862,2860,2847,2815,2727,2582,2550,2445,2389,2336,2300,2292,2288,2298,2295,2297,2302,2295,2290,2289,2333,2380,2599,2705,2811,3164,3259,3446,3458,3395,3341,3169,2963,2870,2858,2841,2837,2835,2846,2838,2836,2781,2698,2658,2553,2513,2426,2396,2342,2324,2318,2296,2293,2295,2304,2307,2302,2303,2285,2285,2262,2266,2322,2379,2627,2744,3105,3223,3447,3483,3486,3402,3342,3163,3098,2919,2872,2865,2852,2863,2865,2883,2876,2845,2817,2730,2689,2583,2542,2513,2425,2377,2360,2357,2342,2348,2356,2367,2378,2388,2388,2391,2395,2409,2624,2922,3025,3314,3433,3436,3411,3272,3204,3013,2856,2826,2766,2769,2768,2805,2813,2831,2811,2767,2733,2589,2486,2450,2379,2356,2326,2316,2321,2338,2337,2353,2355,2372,2469,2536,2788,2894,3185,3267,3377,3379,3267,2962,2808,2778,2747,2718,2737,2753,2758,2771,2758,2703,2667,2564,2521,2422,2387,2301,2278,2268,2274,2272,2282,2293,2304,2310,2321,2374,2425,2641,2746,3075,3356,3406,3444,3411,3375,3318,3143,3079,2939,2898,2837,2813,2820,2817,2824,2811,2764,2730,2626,2500,2467,2343,2316,2303,2276,2259,2246,2247,2256,2255,2259,2248,2265,2281,2441,2518,2620,2951,3258,3318,3367,3363,3234,3168,3114,2945,2836,2805,2790,16
3304,3293,3167,3102,3033,2820,2761,2651,2643,2680,2710,2773,2801,2826,2833,2786,2753,2720,2600,2561,2520,2418,2390,2348,2339,2339,2427,2484,2635,2725,2817,3082,3149,3230,3245,3241,3138,2945,2878,2811,2666,2640,2640,2659,2752,2780,2827,2824,2775,2745,2639,2600,2490,2455,2393,2391,2406,2538,2608,2851,2935,3125,3159,3157,3129,2979,2920,2750,2709,2642,2644,2693,2720,2783,2796,2798,2765,2741,2679,2647,2612,2513,2484,2440,2446,2547,2603,2737,2811,2882,3055,3103,3102,3063,2929,2817,2677,2649,2621,2620,2631,2691,2749,2755,2756,2717,2696,2640,2607,2577,2493,2476,2465,2514,2555,2735,2804,2996,3039,3087,3076,3054,2976,2826,2780,2737,2661,2658,2673,2689,2743,2751,2749,2735,2673,2644,2560,2533,2489,2492,2581,2631,2826,2891,3054,3082,3100,3067,3039,2913,2872,2763,2743,2712,2718,2745,2758,2766,2763,2715,2644,2617,2592,2516,2498,2480,2485,2505,2585,2642,2700,2900,3044,3071,3080,3048,3016,2943,2906,2865,2774,2751,2737,2718,2736,2736,2741,2721,2709,2645,2623,2546,2466,2435,2402,2388,2399,2501,2550,2740,2803,2918,2966,2996,3020,3002,2919,2881,2780,2750,2709,2700,2690,2694,2697,2711,2703,2679,2659,2595,2567,2544,2497,2473,2422,2406,2396,2378,2367,2353,2346,2343,2339,2339,2392,2425,2471,2642,2708,2882,2927,2979,2976,2960,2910,2879,2777,2728,2695,2692,2703,2715,2723,2742,2737,2708,2688,2624,2599,2539,2520,2480,2468,2447,2439,2428,2424,2431,2443,2542,2590,2649,2840,3015,3051,3079,3085,3071,3017,2981,2948,2847,2823,2771,2768,2772,2781,2798,2802,2784,2759,2746,2686,2647,2629,2588,2521,2467,2446,2409,2396,2388,2391,2391,2450,2483,2703,2772,2950,3055,3060,3063,3033,3005,2917,2883,2810,2788,2754,2758,2761,2759,2752,2728,2662,2640,2557,2535,2464,2449,2401,2395,2369,2369,2357,2359,2349,2351,2344,2333,2323,2312,2313,2313,2433,2560,2719,2967,3029,3120,3152,3114,3080,3007,2973,2932,2845,2818,2803,2775,2778,2778,2779,2752,2740,2668,2643,2553,2530,2454,2438,2391,2385,2373,2362,2354,2356,2353,2358,2349,2350,2341,2328,2305,2311,2319,2430,2641,2734,2822,3076,3133,3220,3213,3201,3139,3096,2966,2923,2890,2835,2813,2796,2795,2805,2818,2819,2813,2797,2783,2735,2703,2614,2580,2555,2464,2443,2417,2401,2403,2398,2402,2391,2390,2382,2393,2474,2586,2818,2896,3046,3148,3192,3174,3116,3028,2895,2850,2788,2770,2750,2745,2747,2764,2774,2774,2762,2743,2727,2642,2616,2554,2521,2499,2430,2419,2383,2382,2370,2373,2366,2369,2360,2367,2371,2461,2645,2732,2815,3077,3141,3261,3262,3209,3166,3033,2983,2874,2804,2799,2789,2801,2800,2802,2788,2736,2704,2613,2574,2546,2489,2458,2402,2384,2364,2355,2357,2353,2359,2356,2360,2346,2345,2333,2348,2445,2510,2752,2854,3119,3194,3295,3284,3224,3094,2998,2951,2859,2835,2812,2808,2814,2818,2809,2802,2782,2710,2606,2577,2539,2456,2428,2412,2365,2360,2343,2345,2339,2344,2344,2339,2341,2323,2321,2295,2297,2390,2516,2682,2960,3049,3116,3238,3206,3178,3134,2993,2941,2832,2802,2768,2763,2787,2790,2800,2788,2757,2709,2686,2620,2583,2496,2466,2410,2391,2367,2358,2358,2354,2361,2358,2360,2353,2354,2347,2346,2359,2441,2632,2707,2795,3027,3092,3179,3183,3104,3069,2922,2883,2776,2760,2738,2749,2778,2795,2798,2800,2746,2725,2692,2608,2573,2502,2463,2420,2407,2399,2401,2396,2401,2398,2473,2521,2705,2952,3024,3099,3223,3222,3189,3158,3009,2966,2833,2809,2758,2762,2761,2797,2803,2818,2806,2762,2676,2652,2617,2539,2510,2460,2441,2420,2410,2408,2401,2404,2399,2427,2444,2584,2646,2896,2978,3205,3247,3284,3299,3279,3177,3076,2927,2857,2807,2814,2818,2837,2809,2797,2715,2690,2594,2570,2538,2479,2458,2429,2417,2407,2408,2405,2402,2401,2459,2603,2679,2753,3012,3205,3247,3263,3237,3197,3160,3005,2877,2839,2818,2793,2780,2794,2805,2804,2798,2739,2717,2682,2595,2504,2486,2425,2417,2400,2388,2377,2382,2377,2381,2375,2381,2384,2466,2637,2719,2796,3047,3109,3230,3231,3170,3123,2978,2923,2812,2782,2761,2760,2797,2817,2807,2776,2703,2640,2604,2580,2495,2448,2430,2427,2403,2406,2394,2398,2396,2410,2485,2538,2729,2813,2887,3101,3189,3195,3175,3071,3014,2864,2814,2727,2703,2721,2770,2773,2777,2759,2700,2665,2640,2547,2526,2454,2443,2399,2384,2374,2377,2393,2422,2554,2627,2863,2952,3026,3198,3219,3203,3165,3027,2968,2865,2828,2787,2727,2720,2739,2753,2758,2727,2700,2622,2586,2502,2472,2416,2396,2389,2374,2364,2354,2361,2361,2432,2472,2533,2680,2760,2855,3106,3263,3273,3278,3194,3154,2997,2954,2834,2814,2790,2775,2784,2791,2778,2770,2700,2675,2638,2545,2454,2435,2409,2370,2348,2350,2344,2352,2348,2348,2352,2346,2354,2388,2523,2768,2857,2956,3186,3287,3282,3271,3153,3109,3007,2955,2917,2821,2810,2790,2798,2806,2810,2799,2757,2665,2637,2597,2505,2422,2408,2385,2348,2343,2348,2341,2348,2338,2341,2334,2365,2388,2549,2617,2884,3054,3210,3234,3166,3014,2967,2830,2803,2742,2742,2737,2747,2760,2759,2702,2681,2584,2558,2463,2443,2377,2367,2328,2324,2294,2292,2267,2270,2269,2340,2382,2592,2672,2934,3109,3143,3150,3104,2968,2925,2873,2771,2746,2739,2740,2757,2796,2809,2798,2742,2709,2681,2581,2499,2470,2451,2393,2384,2353,2356,2404,2447,2493,2703,2778,3005,3056,3136,3126,3032,2925,2755,2628,2624,2642,2699,2709,2723,2709,2652,2620,2532,2498,2418,2390,2341,2329,2362,2394,2588,2670,2768,3045,3129,3268,3283,3218,3178,3006,2954,2813,2787,2742,2748,2771,2785,2786,2782,2718,2695,2593,2564,2527,2445,2377,2369,2358,2408,2444,2641,2718,2975,3148,3180,3186,3133,3086,3042,2874,2830,2714,2698,2677,2707,2710,2722,2699,2625,2602,2509,2433,2406,2390,2335,2327,2313,2322,2418,2481,2546,2797,3028,3089,3126,3153,3053,3009,2953,2811,2768,2700,2687,2688,2699,2704,2727,2722,2690,2664,2584,2550,2469,2440,2421,2365,2355,2334,2323,2319,2322,2345,2464,2531,2599,2757,2842,3043,3131,3123,3110,2999,2956,2817,2783,2708,2703,2696,2716,2721,2732,2736,2727,2685,2660,2578,2547,2471,2446,2408,2396,2380,2357,2347,2337,2338,2334,2366,2391,2434,2695,2941,3019,3164,3181,3157,3130,3003,2882,2845,2819,2764,2756,2755,2759,2748,2740,2722,2662,2633,2579,2556,2527,2469,2426,2421,2411,2405,2401,2403,2399,2399,2394,2385,2376,2374,2353,2358,2427,2481,2698,2791,3136,3261,3255,3227,3118,3074,2962,2927,2904,2846,2840,2822,2822,2796,2784,2717,2693,2661,2602,2545,2476,2422,2401,2396,2379,2371,2373,2363,2349,2347,2326,2312,2308,2298,2283,2306,2341,2383,2602,2691,2791,3071,3149,3273,3284,3231,3118,3072,3033,2927,2868,2852,2848,2839,2841,2834,2808,2742,2716,2684,2594,2508,2488,2465,2421,2391,2382,2381,2374,2372,2368,2360,2353,2341,2332,2313,2304,2285,2278,2309,2339,2521,2603,2892,3070,3240,3267,3236,3078,3033,2910,2882,2830,2827,2836,2846,2855,2853,2806,2783,2689,2658,2563,2538,2511,2457,2441,2416,2409,2403,2402,2401,2399,2394,2374,2368,2359,2363,2459,2519,2586,2840,3012,3187,3225,3180,3140,3002,2865,2834,2769,2764,2776,2787,2806,2806,2798,2749,2662,2632,2597,2509,2459,2406,2395,2373,2369,2366,2369,2366,2362,2356,2368,2385,2518,2584,2840,2932,3173,3224,3288,3258,3142,3047,2920,2838,2825,2810,2817,2828,2829,2798,2780,2697,2666,2566,2538,2460,2442,2424,2392,2378,2379,2378,2380,2379,2375,2370,2363,2367,2380,2488,2697,2779,3030,3190,3215,3221,3172,3136,3097,2967,2927,2860,2813,2782,2787,2788,2769,2712,2624,2563,2482,2458,2439,2387,2380,2376,2368,2373,2371,2356,2372,2477,2533,2747,2825,2902,3077,3110,3131,3123,3047,3010,2895,2862,2790,2778,2773,2779,2804,2809,2800,2788,2771,2726,2700,2673,2592,2569,2512,2498,2471,2466,2459,2458,2454,2452,2449,2454,2511,2548,2703,2765,2948,2997,3036,3080,3029,2997,2961,2848,2787,2737,2734,2741,2788,2797,2794,2784,2770,2705,2681,2608,2587,2533,2520,2500,2492,2486,2472,2471,2464,2467,2512,2546,2695,2758,2957,3066,3143,3134,3057,2947,2910,2851,2829,2811,2790,2791,2809,2814,2817,2804,2756,2733,2661,2611,2552,2523,2494,2482,2477,2468,2464,2457,2458,2508,2542,2701,2767,2836,3035,3085,3162,3162,3111,3081,2981,2950,2871,2854,2825,2824,2827,2828,2828,2802,2745,2721,2696,2617,2594,2548,2529,2513,2475,2455,2450,2448,2437,2427,2424,2423,2450,2513,2559,2739,2994,3040,3100,3038,3008,2907,2807,2793,2774,2785,2787,2781,2756,2738,2668,2614,2585,2560,2490,2472,2441,2429,2420,2400,2395,2393,2393,2392,2391,2381,2377,2363,2366,2428,2473,2661,2739,2968,3033,3141,3151,3146,3108,3079,2970,2936,2849,2831,2817,2808,2812,2830,2832,2832,2818,2803,2738,2710,2625,2598,2527,2507,2466,2449,2442,2434,2428,2427,2415,2411,2404,2411,2491,2538,2726,2798,2996,3044,3107,3102,3029,2992,2950,2833,2756,2743,2735,2747,2777,2785,2787,2769,2708,2682,2653,2572,2544,2523,2466,2455,2436,2428,2425,2415,2410,2406,2405,2398,2441,2475,2522,2714,2795,2954,3027,3092,3199,3206,3150,3117,2985,2943,2835,2793,2775,2783,2797,2787,2731,2707,2676,2586,2554,2502,2481,2458,2415,2403,2390,2387,2382,2381,2378,2373,2363,2358,2378,2401,2554,2626,2710,2977,3193,3234,3261,3245,3218,3094,3050,2922,2891,2825,2817,2811,2816,2820,2817,2813,2764,2742,2712,2619,2584,2522,2497,2471,2400,2377,2371,2367,2365,2367,2364,2354,2348,2343,2328,2380,2420,2476,2706,2987,3069,3142,3258,3235,3199,3160,2965,2845,2819,2796,2774,2773,2784,2790,2782,2772,2754,2680,2646,2578,2546,2455,2432,2372,2361,2349,2336,2335,2332,2335,2336,2343,2342,2338,2318,2367,2733,3296,3050,2774,2830,2815,2752,2719,2616,2578,2487,2458,2406,2391,2385,2370,2374,2372,2373,2367,2359,2357,2414,2453,2651,2823,2999,3074,3142,3235,3187,3142,3094,20
2304,2257,2197,2182,2238,2490,2939,3106,3281,3699,3863,3846,3809,3563,3464,3253,3151,3067,2869,2837,2790,2797,2812,2819,2781,2760,2640,2599,2452,2411,2288,2259,2170,2149,2122,2097,2212,2302,2405,2843,3309,3441,3537,3649,3491,3404,3298,2982,2881,2720,2661,2608,2542,2533,2539,2549,2527,2503,2480,2322,2234,2187,2150,2042,1973,1950,1938,1892,1904,1932,1989,2277,2418,2566,3048,3387,3446,3464,3355,3065,2961,2852,2600,2477,2473,2475,2549,2575,2605,2642,2604,2570,2538,2411,2329,2294,2256,2200,2156,2098,2095,2139,2352,2458,2589,3023,3170,3480,3533,3492,3429,3131,3023,2725,2657,2547,2548,2617,2657,2747,2767,2770,2728,2617,2578,2532,2418,2328,2308,2285,2261,2370,2455,2557,2980,3137,3444,3575,3675,3790,3758,3703,3409,3055,2945,2851,2625,2614,2633,2691,2707,2712,2699,2682,2580,2541,2495,2374,2334,2270,2246,2219,2161,2147,2174,2219,2513,2989,3168,3339,3748,3870,3843,3786,3508,3395,3285,2981,2795,2759,2744,2756,2821,2835,2849,2832,2743,2698,2654,2505,2460,2334,2300,2200,2169,2063,2041,2065,2115,2369,2488,2839,2930,3027,3004,2782,2681,2362,2272,2191,2049,2031,2064,2089,2178,2215,2212,2196,2113,2000,1967,1934,1864,1829,1825,1821,1823,1825,1836,2009,2356,2512,3022,3184,3441,3521,3570,3509,3232,3114,2997,2693,2623,2569,2521,2601,2643,2683,2775,2783,2771,2750,2669,2584,2562,2540,2488,2456,2460,2477,2651,2754,2880,3322,3733,3841,3923,3981,3816,3739,3655,3386,3189,3152,3129,3132,3147,3188,3192,3144,3109,2961,2902,2724,2667,2614,2477,2438,2337,2308,2277,2533,2814,3321,3756,3926,3909,3861,3594,3246,3132,3029,2802,2710,2704,2706,2728,2733,2731,2651,2521,2470,2315,2266,2178,2140,2105,2021,1960,1953,1958,2101,2196,2457,2617,2787,3290,3422,3525,3621,3434,3329,3214,2864,2604,2548,2511,2487,2547,2567,2584,2589,2572,2546,2431,2294,2252,2210,2111,2038,2019,2002,2001,2154,2251,2367,2806,2963,3361,3441,3493,3447,3188,3077,2757,2670,2517,2502,2553,2588,2704,2730,2749,2731,2628,2582,2441,2395,2252,2230,2228,2418,2526,2659,3126,3567,3666,3737,3742,3508,3397,3285,2961,2878,2805,2697,2708,2729,2746,2783,2734,2702,2657,2510,2356,2314,2271,2174,2144,2110,2126,2339,2461,2612,3328,3767,3858,3903,3690,3587,3475,3103,2990,2789,2705,2640,2515,2499,2484,2461,2401,2336,2213,2088,2022,1956,1937,1910,1903,1894,1948,2194,2331,2483,3027,3205,3621,3692,3704,3645,3384,3279,3002,2925,2787,2763,2764,2773,2810,2809,2807,2737,2609,2554,2503,2345,2223,2185,2158,2081,2042,2026,2160,2528,2687,2866,3389,3534,3644,3766,3732,3587,3490,3373,3025,2919,2751,2694,2646,2600,2625,2647,2632,2494,2443,2292,2239,2196,2075,1999,1977,1966,1929,1906,1897,1903,2005,2090,2325,2471,2641,3166,3326,3452,3638,3501,3289,2916,2607,2543,2492,2470,2559,2602,2633,2692,2641,2560,2409,2353,2221,2180,2099,2073,2026,2011,2058,2108,2192,2560,3068,3230,3599,3653,3678,3535,3441,3197,3063,2939,2621,2468,2483,2570,2683,2691,2630,2502,2446,2399,2249,2212,2170,2084,2055,2022,2024,2036,2248,2703,2897,3086,3618,3935,3973,3962,3781,3687,3587,3237,2949,2876,2830,2767,2776,2801,2809,2823,2795,2688,2630,2577,2388,2335,2230,2180,2145,2049,2005,1967,2049,2243,2741,2936,3321,3502,3656,3942,3954,3881,3810,3722,3409,3287,2979,2893,2742,2714,2700,2698,2696,2677,2588,2537,2372,2307,2140,2085,1967,1931,1866,1842,1830,1799,1917,2003,2127,2631,3243,3420,3579,3810,3704,3603,3493,3096,2747,2651,2583,2462,2459,2458,2508,2518,2524,2480,2400,2183,2123,1976,1930,1860,1836,1804,1736,1709,1691,1641,1657,1755,1846,1975,2491,3111,3288,3445,3662,3659,3538,3430,3311,2886,2631,2393,2345,2374,2407,2550,2585,2632,2640,2625,2527,2358,2304,2243,2099,1986,1961,1931,1905,1923,2149,2272,2786,2974,3507,3630,3789,3758,3505,3371,2952,2817,2709,2487,2478,2506,2650,2690,2731,2758,2679,2627,2578,2398,2345,2183,2143,2079,2253,2368,2520,3069,3261,3440,3860,3953,3913,3836,3529,3131,3009,2892,2674,2625,2645,2665,2753,2764,2750,2714,2571,2505,2445,2255,2108,2062,2028,1958,1976,2090,2190,2330,2883,3468,3778,3992,3990,3945,3723,3399,3286,3170,2903,2839,2766,2753,2744,2758,2757,2743,2728,2695,2558,2366,2306,2239,2076,2027,1989,1886,1844,1859,2090,2224,2791,2999,3576,3720,3932,3916,3701,3594,3219,3084,2747,2657,2591,2475,2472,2473,2479,2439,2409,2310,2241,2171,1922,1707,1649,1602,1507,1493,1483,1488,1536,1800,2329,2545,3006,3228,3423,3807,3812,3750,3657,3312,2951,2854,2764,2601,2572,2563,2571,2595,2588,2579,2494,2366,2316,2273,2146,2059,2034,2018,1971,1961,1945,1911,1931,1983,2057,2463,3043,3242,3425,3811,3857,3761,3661,3276,2866,2757,2663,2525,2518,2535,2640,2748,2762,2769,2704,2558,2497,2323,2265,2133,2096,2030,2014,2005,1977,1971,1957,1958,1980,2180,2304,2795,2990,3526,3661,3827,3805,3526,2915,2770,2440,2385,2353,2418,2609,2679,2734,2827,2776,2737,2685,2508,2332,2284,2236,2126,2094,2071,2083,2137,2328,2625,3184,3801,3882,3876,3583,3447,3301,2848,2533,2474,2446,2493,2544,2599,2754,2799,2785,2754,2605,2410,2349,2287,2137,2028,2008,2003,2157,2599,2793,2987,3552,3710,4009,4033,3926,3855,3561,3441,3079,2979,2797,2775,2802,2828,2896,2901,2897,2805,2626,2555,2486,2284,2124,2081,2043,1946,1925,1932,1972,2047,2463,3065,3266,3456,3892,3973,4012,3921,3684,3583,3473,3135,2891,2840,2804,2767,2773,2769,2757,2668,2619,2564,2365,2297,2164,2103,2049,1915,1828,1805,1786,1762,1916,2026,2165,2725,3350,3528,3677,3887,3877,3831,3554,3181,2945,2689,2571,2561,2559,2582,2576,2559,2533,2406,2352,2294,2120,1972,1931,1895,1816,1760,1744,1737,1824,2166,2720,2926,3475,3602,3739,3706,3640,3312,3180,2917,2799,2694,2488,2443,2456,2476,2542,2554,2550,2531,2500,2358,2172,2110,2050,1899,1858,1824,1745,1697,1692,1703,1870,2116,2643,3029,3360,3558,3599,3394,3275,3137,2709,2581,2383,2320,2278,2297,2337,2444,2499,2546,2621,2571,2532,2484,2320,2262,2158,2067,1959,1906,1926,2171,2304,2462,3008,3500,3607,3679,3655,3341,3195,3043,2613,2505,2331,2330,2452,2519,2703,2747,2780,2762,2635,2580,2394,2334,2171,2127,2190,2384,2881,3070,3605,3854,3941,3713,3597,3325,3179,3032,2683,2537,2539,2557,2687,2731,2772,2816,2804,2739,2688,2633,2441,2199,2150,2063,2082,2328,2479,3036,3230,3590,3739,3862,3999,3970,3912,3749,3536,3285,3162,3046,2796,2711,2716,2728,2784,2783,2764,2730,2580,2516,2454,2264,2065,2028,1951,2061,2156,2286,2823,3413,3584,3735,3955,3838,3753,3658,3308,3189,2879,2807,2679,2668,2672,2681,2668,2652,2539,2489,2310,2253,2086,2040,1915,1884,1857,1895,1958,2333,2903,3111,3303,3733,3821,3778,3703,3377,3249,3006,2899,2801,2614,2579,2566,2567,2578,2588,2581,2572,2477,2325,2208,2037,1854,1820,1752,1870,1961,2086,2575,2766,2948,3385,3491,3454,3379,3030,2622,2510,2409,2241,2222,2272,2302,2394,2406,2413,2391,2330,2244,2194,2150,2017,1919,1887,1863,1808,1889,1958,2060,2483,3001,3281,3449,3377,3052,2907,2621,2384,2206,2251,2309,2508,2571,2669,2676,2607,2570,2522,2378,2327,2214,2189,2243,2306,2656,2807,3305,3661,3722,3737,3586,3207,3070,2929,2610,2543,2507,2523,2671,2716,2761,2806,2734,2685,2636,2456,2297,2256,2242,2344,2444,2567,3074,3581,3725,3831,3940,3741,3644,3532,3171,2876,2815,2765,2724,2754,2768,2769,2735,2698,2661,2499,2332,2275,2229,2117,2175,2245,2351,2801,3351,3509,3647,3840,3725,3633,3533,3190,3086,2821,2763,2641,2625,2607,2577,2511,2482,2347,2299,2137,2091,1949,1913,1874,1863,2060,2183,2321,2835,3283,3384,3442,3435,3206,3112,3008,2744,2554,2517,2483,2445,2436,2437,2405,2391,2297,2261,2123,2002,1960,1930,1840,1808,1819,1861,2117,2403,2909,3298,3411,3350,3006,2907,2673,2526,2506,2488,2487,2483,2481,2462,2387,2347,2311,2183,2076,2041,2017,1941,1886,1868,1867,1947,2232,2360,2511,2962,3095,3195,3326,3191,3112,3014,2731,2519,2480,2447,2436,2473,2491,2492,2484,2398,2365,2242,2207,2166,2081,2015,2004,1986,1959,1938,1966,2001,2244,2626,2774,2908,3139,3223,3269,3294,3250,3187,2925,2823,2734,2518,2453,2458,2483,2578,2616,2663,2669,2673,2613,2510,2467,2433,2328,2305,2275,2217,2209,2241,2284,2551,2943,3087,3213,3487,3498,3455,3381,3105,2826,2760,2700,2631,2630,2648,2713,2740,2755,2672,2554,2506,2469,2352,2271,2242,2226,2174,2182,2305,2401,2805,2979,3478,3623,3859,3877,3746,3669,3387,3300,3208,3018,2916,2909,2898,2901,2893,2857,2824,2710,2656,2513,2376,2345,2307,2233,2168,2160,2153,2271,2351,2468,2921,3441,3580,3701,3846,3719,3630,3539,3229,3141,2908,2859,2757,2730,2733,2699,2684,2652,2545,2404,2365,2318,2212,2125,2108,2083,2044,2100,2167,2250,2643,2969,3407,3619,3594,3370,3275,3069,2882,2676,2586,2571,2571,2574,2569,2550,2535,2438,2404,2358,2243,2137,2112,2037,2022,1969,1968,2040,2112,2434,2580,3024,3158,3384,3402,3267,3183,3078,2762,2509,2459,2416,2394,2451,2480,2498,2532,2484,2459,2421,2306,2260,2224,2109,2022,1993,1977,1957,2102,2191,2310,2744,2909,3205,3321,3418,3498,3323,3220,3116,2789,2704,2626,2519,2557,2598,2635,2714,2750,2784,2780,2758,2667,2535,2496,2448,2341,2317,2320,2444,2787,3088,3512,3729,3730,3707,3467,3120,3000,2899,2669,2605,2607,2630,2702,2728,2740,2731,2639,2604,2471,2434,2314,2287,2258,2292,2539,2676,2824,3334,3487,3806,3750,3663,3344,3019,2937,2861,2739,2720,2734,2739,2757,2745,2679,2638,2508,2456,2413,2277,2177,2152,2266,2359,2609,2923,3387,3657,3673,3664,3459,3360,3247,2928,2695,2652,2616,2594,2619,2630,2630,2602,2575,2472,2427,2304,2184,2152,2114,2065,2076,2116,2367,2945,3095,3405,3438,3383,3312,3004,18
3272,3113,3063,2992,2945,2917,2911,2896,2872,2862,2787,2761,2646,2611,2565,2453,2413,2327,2297,2243,2224,2203,2200,2189,2188,2184,2178,2183,2179,2185,2179,2177,2169,2158,2149,2151,2153,2259,2424,2530,2663,2802,3267,3532,3630,3712,3786,3773,3691,3629,3571,3363,3304,3239,3092,3049,2987,2970,2947,2909,2891,2856,2838,2808,2714,2670,2586,2548,2502,2388,2348,2265,2220,2189,2172,2166,2144,2142,2137,2143,2138,2143,2144,2139,2142,2132,2126,2116,2106,2123,2258,2348,2713,2869,3022,3327,3574,3726,3767,3730,3689,3629,3496,3355,3169,3072,2968,2930,2921,2905,2874,2855,2791,2727,2651,2607,2489,2446,2344,2310,2240,2205,2179,2152,2146,2149,2144,2150,2149,2154,2146,2148,2139,2130,2130,2137,2167,2347,2448,2824,2971,3361,3464,3536,3625,3604,3522,3393,3174,3098,2928,2882,2854,2814,2801,2807,2805,2803,2787,2749,2727,2691,2586,2542,2507,2390,2302,2272,2255,2201,2195,2173,2178,2182,2181,2187,2185,2193,2203,2272,2408,2732,3124,3255,3361,3579,3587,3559,3509,3321,3102,3043,2887,2857,2795,2794,2788,2794,2786,2753,2727,2703,2638,2596,2482,2439,2338,2304,2234,2210,2175,2163,2161,2156,2158,2165,2168,2175,2185,2215,2253,2389,2487,2854,3000,3394,3501,3670,3686,3603,3555,3492,3297,3228,3061,3012,2916,2891,2855,2843,2813,2793,2723,2689,2584,2542,2432,2393,2278,2260,2205,2197,2180,2170,2169,2161,2165,2168,2167,2172,2171,2176,2173,2166,2167,2162,2181,2314,2401,2758,3058,3486,3592,3777,3783,3701,3642,3512,3445,3371,3239,3184,3038,3007,2934,2923,2907,2875,2855,2791,2756,2610,2532,2496,2456,2364,2334,2274,2255,2226,2215,2215,2201,2204,2199,2204,2200,2204,2197,2199,2184,2184,2174,2209,2308,2391,2736,2885,3333,3470,3580,3778,3786,3704,3643,3438,3360,3222,3166,3108,2988,2919,2911,2897,2874,2858,2845,2803,2771,2745,2635,2526,2486,2456,2364,2343,2282,2271,2249,2237,2234,2218,2220,2219,2215,2219,2217,2220,2213,2213,2197,2197,2189,2188,2203,2322,2404,2739,3025,3434,3535,3708,3710,3613,3405,3333,3256,3064,3011,2914,2895,2884,2881,2881,2870,2819,2789,2689,2648,2538,2500,2469,2360,2301,2290,2257,2252,2240,2242,2242,2246,2248,2251,2244,2243,2245,2264,2408,2496,2596,2991,3132,3514,3601,3723,3712,3577,3505,3269,3049,2941,2848,2832,2828,2829,2828,2817,2806,2726,2613,2569,2448,2408,2376,2288,2268,2218,2210,2190,2190,2189,2194,2202,2209,2209,2218,2213,2205,2209,2303,2373,2460,2846,3315,3466,3594,3842,3867,3811,3755,3543,3463,3249,3183,3041,2978,2921,2900,2875,2758,2639,2599,2553,2431,2322,2296,2268,2209,2170,2157,2151,2152,2152,2156,2158,2161,2160,2161,2156,2148,2140,2136,2144,2274,2355,2731,3050,3518,3643,3854,3776,3717,3486,3259,3131,3035,2994,2965,2909,2901,2872,2861,2798,2700,2658,2534,2491,2377,2341,2312,2238,2220,2180,2166,2158,2156,2156,2158,2162,2162,2158,2155,2152,2146,2142,2133,2132,2185,2234,2306,2514,2647,3134,3303,3725,3885,3930,3911,3874,3675,3429,3347,3272,3143,3091,3049,3014,2972,2953,2949,2946,2917,2898,2808,2769,2640,2595,2467,2429,2331,2306,2282,2233,2213,2195,2195,2193,2195,2197,2200,2200,2198,2198,2195,2189,2185,2173,2167,2160,2168,2285,2365,2733,2888,3055,3536,3669,3906,3892,3843,3627,3542,3455,3214,3148,3004,2956,2940,2944,2933,2901,2876,2768,2726,2588,2544,2419,2384,2350,2274,2225,2214,2205,2195,2194,2197,2198,2205,2207,2206,2205,2200,2182,2175,2166,2248,2397,2503,2919,3077,3237,3638,3827,3838,3735,3669,3421,3250,3037,2911,2891,2877,2884,2891,2902,2896,2843,2814,2660,2532,2492,2454,2356,2285,2268,2253,2235,2224,2224,2225,2236,2239,2243,2253,2253,2250,2238,2238,2304,2359,2433,2641,2909,3348,3587,3774,3785,3738,3623,3382,3135,3064,3004,2879,2847,2858,2856,2799,2606,2478,2398,2278,2206,2179,2171,2176,2190,2189,2189,2184,2192,2212,2384,2479,2878,3034,3491,3612,3834,3852,3778,3718,3498,3416,3195,3078,2993,2923,2903,2893,2882,2871,2802,2772,2654,2612,2568,2443,2333,2304,2229,2212,2196,2166,2151,2152,2155,2156,2161,2158,2152,2140,2165,2204,2436,2557,2691,2842,3320,3691,3764,3825,3752,3549,3242,3175,3014,2924,2906,2895,2883,2875,2869,2824,2802,2705,2667,2538,2497,2378,2345,2256,2198,2182,2172,2147,2144,2139,2142,2146,2150,2155,2152,2146,2140,2128,2130,2232,2303,2641,2786,3264,3539,3774,3773,3728,3529,3448,3368,3286,3144,2985,2946,2918,2893,2869,2855,2847,2839,2785,2759,2651,2612,2567,2484,2445,2302,2224,2207,2164,2157,2141,2142,2139,2148,2149,2155,2159,2159,2164,2157,2155,2147,2132,2127,2134,2229,2505,2632,3091,3515,3697,3767,3695,3481,3232,3152,3086,2899,2854,2856,2857,2867,2837,2820,2790,2685,2554,2514,2471,2363,2278,2260,2239,2206,2195,2193,2189,2201,2203,2209,2215,2208,2195,2191,2262,2317,2609,2738,2884,3327,3458,3654,3710,3746,3696,3645,3421,3342,3105,3045,2902,2877,2844,2847,2848,2808,2787,2682,2600,2514,2475,2434,2333,2302,2240,2198,2193,2178,2180,2191,2197,2197,2194,2186,2172,2169,2254,2316,2641,2782,2940,3264,3414,3759,3819,3856,3815,3640,3563,3490,3271,3211,3055,3020,2943,2930,2891,2880,2860,2816,2722,2640,2594,2507,2353,2323,2243,2226,2206,2175,2156,2157,2152,2155,2153,2157,2154,2154,2149,2143,2142,2134,2121,2112,2112,2140,2187,2441,2719,3052,3547,3674,3785,3931,3931,3807,3746,3530,3462,3262,3212,3079,3051,2964,2943,2888,2858,2767,2723,2603,2472,2437,2395,2305,2274,2217,2197,2169,2158,2156,2149,2143,2144,2143,2138,2138,2131,2123,2113,2099,2090,2132,2240,2558,2709,3198,3362,3729,3805,3849,3824,3648,3579,3352,3288,3109,3068,2964,2946,2924,2885,2865,2806,2745,2669,2452,2415,2303,2227,2202,2162,2136,2128,2131,2127,2132,2130,2134,2130,2132,2127,2124,2108,2107,2086,2086,2121,2169,2231,2561,3033,3206,3637,3741,3870,3863,3719,3652,3570,3493,3253,3076,2946,2914,2912,2872,2847,2761,2719,2597,2550,2513,2393,2308,2280,2232,2215,2211,2192,2195,2194,2205,2203,2209,2205,2208,2191,2189,2160,2157,2177,2219,2453,2577,2711,3022,3596,3696,3814,3806,3767,3581,3495,3249,3168,2992,2946,2882,2870,2874,2869,2849,2825,2805,2694,2566,2516,2395,2353,2323,2236,2221,2171,2167,2145,2145,2141,2147,2144,2150,2145,2147,2139,2129,2117,2101,2140,2195,2473,2615,3102,3278,3435,3794,3852,3893,3880,3646,3561,3399,3325,3246,3070,3019,2984,2908,2899,2868,2831,2803,2714,2632,2493,2326,2295,2202,2184,2130,2124,2101,2103,2099,2106,2107,2114,2110,2116,2107,2109,2091,2089,2066,2079,2225,2434,2894,3422,3571,3883,3924,3897,3839,3630,3543,3308,3234,3072,3026,2953,2935,2911,2897,2888,2822,2795,2674,2633,2487,2444,2315,2284,2246,2178,2147,2132,2128,2114,2119,2116,2122,2129,2135,2141,2138,2141,2129,2130,2111,2100,2085,2076,2114,2153,2426,2558,3069,3244,3705,3811,3897,3960,3824,3755,3683,3520,3358,3154,3108,3005,2975,2966,2966,2934,2921,2832,2797,2658,2614,2471,2433,2389,2320,2226,2216,2198,2182,2170,2175,2176,2183,2180,2191,2187,2188,2180,2181,2160,2143,2136,2205,2260,2576,2716,3219,3382,3537,3849,3880,3836,3766,3525,3261,3190,3015,2984,2928,2933,2932,2947,2905,2876,2771,2634,2593,2459,2425,2386,2303,2277,2235,2221,2214,2215,2223,2233,2243,2242,2249,2234,2235,2230,2295,2344,2628,2896,3193,3332,3667,3724,3753,3711,3515,3426,3341,3087,3022,2873,2828,2831,2850,2800,2769,2664,2495,2451,2349,2266,2251,2231,2203,2195,2198,2197,2212,2213,2222,2219,2227,2238,2269,2457,2815,2956,3110,3516,3622,3771,3774,3648,3583,3503,3264,3051,3001,2888,2872,2848,2851,2840,2813,2739,2700,2581,2533,2414,2373,2283,2255,2205,2173,2173,2167,2172,2172,2184,2183,2184,2186,2179,2168,2161,2168,2211,2257,2534,2663,2814,3290,3683,3762,3821,3849,3825,3674,3602,3385,3311,3248,3129,2994,2936,2869,2859,2777,2674,2639,2595,2472,2353,2322,2233,2214,2191,2152,2139,2126,2120,2123,2120,2127,2123,2127,2122,2120,2114,2114,2096,2094,2103,2254,2461,2912,3089,3425,3568,3697,3921,3827,3773,3499,3296,3243,3187,3062,2954,2890,2872,2787,2758,2638,2599,2551,2431,2319,2292,2261,2199,2157,2141,2135,2130,2133,2129,2133,2128,2130,2120,2120,2106,2106,2089,2088,2078,2071,2103,2136,2379,2498,2645,2976,3148,3320,3733,3824,3915,3899,3742,3677,3454,3387,3199,3152,3031,3006,2979,2929,2910,2851,2755,2721,2678,2551,2505,2388,2350,2321,2239,2190,2176,2155,2147,2145,2142,2145,2146,2139,2140,2133,2126,2124,2107,2095,2081,2073,2068,2129,2181,2260,2616,2776,3453,3810,3879,3908,3875,3685,3611,3528,3300,3116,3073,2979,2964,2932,2926,2912,2861,2831,2729,2645,2511,2473,2394,2329,2249,2233,2203,2189,2175,2170,2175,2174,2180,2184,2190,2186,2188,2172,2170,2145,2144,2142,2180,2493,2625,3086,3251,3651,3741,3832,3814,3770,3565,3477,3224,3145,2970,2899,2867,2859,2861,2841,2817,2726,2594,2550,2500,2373,2332,2300,2216,2168,2154,2150,2139,2142,2148,2156,2166,2175,2171,2171,2153,2148,2139,2159,2192,2428,3011,3498,3634,3897,3817,3759,3522,3441,3205,3143,3083,2965,2939,2907,2886,2870,2802,2685,2550,2460,2306,2274,2208,2189,2178,2154,2154,2152,2156,2164,2170,2174,2176,2171,2170,2152,2146,2128,2201,2261,2349,2739,2906,3080,3573,3702,3934,3950,3864,3803,3586,3504,3279,3212,3061,3022,2956,2942,2934,2895,2831,2762,2629,2401,2357,2287,2209,2175,2143,2140,2133,2136,2140,2143,2147,2143,2141,2134,2122,2109,2084,2088,2109,2310,2420,2881,3057,3560,3800,3937,3841,3774,3542,3454,3224,3158,3021,2988,2941,2932,2916,2903,2890,2811,2778,2647,2603,2460,2419,2304,2244,2184,2147,2143,2130,2133,2132,2136,2136,2139,2135,2137,2132,2124,2116,2099,2089,2082,2091,2244,2337,2753,2919,3438,3584,3874,3907,3917,3796,3726,3470,14
2314,2339,2355,2403,2408,2401,2395,2377,2322,2296,2253,2238,2216,2186,2179,2166,2153,2153,2147,2154,2153,2162,2174,2239,2277,2394,2470,2546,2632,2876,3030,3042,2995,2951,2906,2740,2690,2588,2539,2500,2402,2383,2352,2341,2347,2350,2357,2361,2355,2351,2337,2297,2272,2179,2154,2092,2085,2090,2106,2121,2160,2184,2242,2264,2279,2310,2327,2337,2350,2373,2384,2480,2532,2598,2842,3114,3187,3250,3324,3327,3249,3213,3139,3099,3015,2993,2980,2962,2954,2953,2950,2958,2965,2975,2974,2963,2956,2910,2892,2870,2826,2807,2745,2728,2708,2678,2667,2653,2626,2616,2606,2604,2599,2592,2590,2602,2622,2651,2799,3005,3080,3292,3310,3311,3298,3274,3186,3154,3125,3042,2987,2972,2960,2940,2930,2923,2911,2893,2846,2775,2747,2719,2655,2622,2529,2499,2474,2426,2384,2365,2322,2287,2280,2293,2318,2465,2534,2762,2836,2994,3017,3023,2996,2968,2933,2896,2815,2776,2681,2657,2641,2620,2617,2637,2668,2703,2735,2759,2760,2737,2700,2686,2673,2647,2637,2630,2622,2614,2611,2606,2607,2607,2614,2619,2660,2693,2856,2930,3168,3243,3426,3429,3392,3355,3309,3157,3106,2974,2937,2859,2841,2819,2811,2820,2824,2831,2828,2814,2785,2747,2725,2701,2677,2627,2601,2576,2506,2448,2430,2416,2385,2375,2376,2390,2402,2421,2493,2546,2610,2685,2854,2943,3186,3242,3305,3292,3180,3129,2975,2929,2821,2795,2749,2743,2747,2752,2758,2767,2770,2770,2766,2750,2735,2679,2659,2593,2572,2516,2485,2454,2435,2432,2434,2439,2453,2460,2464,2476,2483,2486,2491,2517,2629,2687,2758,2917,3086,3282,3318,3334,3315,3192,3136,2965,2910,2745,2722,2693,2687,2689,2709,2725,2754,2759,2751,2738,2726,2659,2580,2553,2530,2467,2454,2427,2415,2409,2400,2389,2389,2388,2393,2405,2414,2420,2477,2510,2611,2678,2901,2982,3050,3162,3198,3212,3169,3127,2968,2907,2744,2695,2593,2569,2558,2565,2620,2637,2658,2688,2697,2667,2651,2608,2581,2560,2491,2476,2438,2434,2423,2427,2435,2445,2505,2648,2723,2804,2987,3085,3174,3259,3414,3392,3347,3293,3157,3007,2794,2648,2616,2584,2589,2652,2677,2755,2771,2785,2792,2783,2774,2709,2684,2626,2593,2565,2478,2409,2385,2311,2304,2311,2330,2368,2555,2642,2728,2989,3103,3141,3129,3017,2831,2771,2708,2567,2531,2482,2479,2498,2518,2580,2617,2643,2639,2602,2575,2565,2552,2546,2532,2523,2509,2501,2499,2486,2477,2475,2488,2623,2695,2987,3091,3375,3435,3481,3473,3408,3369,3335,3295,3226,3196,3080,3038,2875,2822,2663,2620,2505,2453,2437,2394,2374,2366,2350,2307,2285,2229,2206,2194,2171,2160,2158,2165,2185,2273,2320,2385,2535,2615,2706,2930,2986,3034,3026,3011,2872,2820,2640,2502,2462,2440,2394,2398,2412,2441,2453,2494,2494,2493,2479,2441,2389,2380,2363,2337,2325,2313,2306,2307,2302,2314,2322,2333,2340,2420,2563,2628,2685,2749,2860,2896,2945,2930,2912,2807,2700,2662,2590,2570,2563,2552,2561,2590,2607,2633,2643,2634,2631,2592,2584,2539,2531,2517,2498,2482,2485,2481,2487,2484,2496,2501,2508,2519,2518,2526,2522,2528,2545,2667,2710,2867,2912,2957,3014,3019,3020,2957,2931,2835,2811,2743,2720,2719,2728,2731,2744,2765,2773,2776,2768,2767,2735,2726,2709,2684,2676,2643,2640,2629,2619,2619,2609,2613,2608,2617,2620,2628,2634,2641,2642,2647,2646,2645,2644,2639,2653,2662,2753,2789,2923,2960,2999,3041,3001,2971,2884,2853,2834,2806,2775,2769,2754,2761,2760,2773,2785,2797,2803,2791,2788,2752,2744,2727,2704,2669,2655,2648,2640,2642,2636,2643,2639,2646,2648,2648,2644,2647,2641,2642,2635,2639,2627,2625,2621,2663,2686,2725,2840,2888,2983,2985,2912,2876,2769,2756,2728,2715,2717,2715,2726,2740,2751,2753,2756,2745,2727,2721,2677,2669,2652,2629,2616,2623,2631,2640,2649,2654,2643,2631,2630,2603,2587,2575,2567,2559,2573,2581,2667,2699,2829,2863,2902,2948,2950,2950,2879,2849,2728,2694,2655,2592,2574,2526,2527,2522,2541,2561,2574,2582,2588,2583,2581,2574,2571,2566,2571,2569,2581,2580,2587,2594,2614,2616,2638,2653,2651,2656,2659,2729,2832,2861,2954,2978,2968,2948,2931,2860,2844,2811,2795,2789,2776,2780,2791,2823,2833,2838,2840,2817,2812,2798,2773,2746,2745,2729,2725,2726,2720,2724,2721,2726,2723,2728,2729,2718,2711,2703,2704,2707,2777,2807,2934,3013,3076,3084,3063,3021,2991,2924,2886,2860,2846,2836,2830,2835,2834,2837,2819,2814,2774,2763,2743,2705,2687,2659,2646,2630,2620,2614,2607,2609,2604,2609,2604,2607,2602,2601,2595,2599,2592,2593,2590,2574,2563,2550,2566,2594,2703,2756,2894,2937,2987,2989,2925,2903,2816,2799,2745,2740,2722,2726,2724,2731,2741,2760,2758,2758,2752,2738,2726,2716,2710,2725,2727,2756,2755,2744,2722,2634,2589,2466,2422,2344,2325,2322,2325,2328,2343,2377,2393,2411,2418,2420,2426,2429,2439,2469,2495,2607,2664,2839,2905,3046,3078,3086,3075,3048,2960,2924,2841,2814,2766,2753,2749,2747,2754,2765,2765,2747,2699,2646,2622,2573,2554,2545,2514,2513,2511,2535,2564,2568,2596,2616,2616,2631,2628,2633,2630,2632,2629,2652,2728,2772,2813,2961,3064,3084,3062,3043,3012,2916,2822,2802,2780,2752,2748,2742,2744,2756,2781,2782,2780,2770,2734,2715,2665,2646,2607,2592,2568,2558,2556,2541,2538,2537,2540,2538,2540,2533,2529,2524,2524,2518,2521,2532,2601,2646,2692,2875,2933,3084,3108,3113,3088,2994,2956,2869,2843,2800,2787,2780,2777,2781,2783,2787,2768,2713,2677,2628,2585,2579,2556,2543,2545,2541,2537,2537,2542,2539,2543,2539,2543,2537,2538,2536,2540,2537,2539,2543,2538,2540,2534,2530,2533,2566,2601,2639,2817,2881,3083,3128,3195,3183,3101,3056,2936,2896,2817,2794,2773,2768,2782,2784,2794,2796,2796,2761,2748,2684,2625,2603,2589,2543,2536,2509,2505,2486,2486,2475,2478,2479,2485,2486,2498,2499,2510,2509,2513,2511,2509,2504,2500,2496,2493,2497,2495,2503,2507,2521,2612,2665,2857,2933,3128,3223,3220,3109,3068,2935,2835,2789,2753,2750,2763,2766,2778,2750,2702,2686,2627,2611,2562,2552,2518,2512,2502,2488,2485,2477,2465,2459,2458,2456,2463,2468,2468,2470,2467,2465,2469,2465,2467,2465,2483,2500,2530,2669,2733,2929,2991,3036,3104,3073,3039,3001,2854,2809,2686,2660,2613,2614,2615,2656,2693,2733,2744,2733,2697,2675,2618,2595,2544,2526,2489,2476,2456,2449,2445,2442,2447,2454,2456,2465,2478,2487,2498,2501,2513,2514,2522,2570,2608,2757,2823,2887,3071,3140,3150,3069,3029,2884,2843,2728,2683,2663,2694,2705,2744,2741,2735,2718,2662,2635,2568,2528,2487,2480,2470,2471,2471,2478,2498,2510,2520,2532,2543,2542,2547,2635,2806,2952,3210,3251,3142,3044,2948,2833,2780,2747,2726,2725,2736,2735,2727,2717,2708,2660,2605,2584,2533,2516,2483,2473,2462,2459,2464,2465,2479,2481,2488,2498,2505,2511,2514,2516,2511,2511,2509,2504,2505,2523,2548,2688,2759,2999,3082,3266,3299,3284,3253,3111,3063,2927,2893,2814,2801,2774,2773,2770,2773,2771,2756,2743,2695,2673,2611,2589,2570,2516,2482,2472,2468,2456,2459,2462,2467,2473,2478,2477,2483,2479,2479,2471,2466,2462,2455,2455,2458,2460,2466,2472,2550,2596,2811,2985,3216,3322,3316,3300,3164,2999,2944,2901,2792,2749,2742,2744,2754,2770,2769,2736,2701,2638,2567,2550,2494,2483,2449,2445,2432,2430,2438,2446,2453,2455,2475,2484,2491,2489,2495,2488,2490,2485,2485,2480,2483,2479,2478,2475,2483,2551,2731,2806,3061,3134,3277,3284,3278,3160,2988,2927,2876,2749,2725,2687,2691,2717,2735,2769,2778,2757,2738,2672,2572,2508,2496,2459,2456,2448,2445,2443,2448,2457,2478,2482,2501,2502,2510,2508,2505,2499,2494,2494,2555,2594,2651,2864,2946,3158,3208,3242,3222,3087,3034,2870,2826,2725,2710,2694,2703,2739,2767,2781,2707,2592,2527,2499,2512,2564,2574,2557,2522,2591,2787,3054,3300,3349,3386,3357,3320,3150,2931,2893,2856,2804,2797,2805,2824,2831,2820,2811,2792,2731,2652,2630,2604,2550,2506,2486,2475,2479,2497,2513,2512,2518,2514,2512,2506,2509,2500,2502,2493,2495,2514,2544,2703,2787,3067,3166,3382,3421,3402,3367,3194,3138,2977,2940,2851,2824,2815,2818,2823,2818,2804,2727,2648,2617,2545,2521,2479,2465,2451,2445,2448,2447,2459,2465,2470,2484,2482,2488,2484,2484,2479,2481,2470,2473,2469,2469,2474,2492,2514,2677,2939,3041,3136,3373,3430,3415,3270,3214,3149,2986,2939,2852,2832,2818,2815,2831,2832,2832,2820,2774,2723,2638,2563,2537,2519,2470,2463,2441,2441,2441,2447,2455,2463,2471,2476,2480,2476,2471,2467,2459,2444,2444,2433,2439,2445,2550,2763,2856,2946,3202,3313,3289,3144,2895,2840,2728,2703,2694,2693,2734,2745,2761,2774,2749,2727,2709,2629,2555,2528,2511,2458,2434,2426,2426,2424,2431,2443,2453,2467,2476,2476,2489,2483,2485,2494,2518,2647,2719,2793,3058,3135,3297,3309,3249,3197,3022,2960,2817,2778,2755,2711,2724,2730,2745,2772,2780,2781,2771,2733,2694,2622,2581,2543,2516,2518,2519,2528,2540,2569,2581,2592,2604,2604,2620,2616,2619,2610,2596,2584,2591,2695,3015,3112,3348,3401,3418,3391,3342,3164,3095,2924,2870,2765,2737,2723,2693,2705,2706,2724,2680,2665,2588,2566,2482,2464,2404,2397,2382,2370,2365,2372,2378,2387,2396,2405,2405,2418,2418,2424,2419,2423,2418,2420,2412,2417,2418,2502,2554,2815,2916,3243,3330,3489,3488,3474,3322,3126,3058,2912,2872,2813,2798,2796,2793,2800,2801,2784,2764,2750,2724,2648,2560,2538,2467,2436,2411,2402,2399,2413,2423,2432,2431,2443,2441,2444,2439,2438,2427,2429,2423,2420,2413,2412,2408,2449,2481,2689,2780,2993,3109,3212,3448,3479,3449,3397,3205,3131,3069,2902,2866,2793,2788,2781,2789,2798,2802,2780,2733,2705,2685,2602,2581,2505,2489,2465,2427,2410,2408,2387,2391,2388,2397,2404,2421,2428,2427,2429,2423,2415,2419,2408,2411,2399,2405,2422,2488,2693,3001,3204,3393,3417,3387,3339,3141,3060,2852,2792,2749,2665,2664,2686,2711,2772,2795,2811,2810,2751,26
3234,3167,3000,2897,2875,2861,2841,2841,2825,2814,2747,2717,2681,2563,2440,2404,2368,2287,2235,2226,2216,2209,2207,2214,2214,2219,2217,2213,2208,2202,2199,2193,2179,2171,2158,2152,2143,2143,2203,2248,2501,2618,2755,3198,3341,3579,3663,3726,3752,3721,3609,3539,3469,3250,3186,3071,3021,2981,2888,2872,2857,2845,2840,2837,2825,2772,2673,2636,2593,2472,2362,2335,2306,2253,2225,2224,2220,2228,2229,2235,2243,2251,2249,2251,2247,2247,2245,2239,2239,2230,2222,2216,2216,2217,2231,2339,2412,2735,2878,3327,3470,3777,3833,3857,3794,3734,3590,3513,3432,3205,3136,2979,2883,2870,2859,2863,2866,2871,2861,2807,2775,2666,2622,2503,2464,2377,2352,2309,2296,2292,2305,2313,2315,2323,2325,2324,2318,2307,2290,2261,2230,2228,2238,2256,2295,2513,2625,2747,3177,3312,3548,3638,3697,3727,3634,3487,3400,3144,2920,2864,2812,2724,2709,2709,2721,2730,2770,2772,2776,2734,2678,2569,2444,2340,2309,2288,2233,2218,2222,2235,2245,2262,2272,2284,2289,2289,2292,2282,2280,2271,2256,2248,2248,2264,2285,2471,2570,2834,2989,3147,3599,3717,3938,3950,3908,3858,3791,3561,3473,3234,3160,2997,2953,2880,2864,2862,2862,2869,2854,2799,2764,2733,2601,2560,2426,2392,2294,2275,2239,2224,2219,2206,2211,2216,2217,2226,2236,2244,2243,2251,2247,2242,2242,2233,2214,2200,2182,2178,2170,2216,2256,2405,2515,2636,3099,3256,3414,3764,3835,3883,3861,3825,3611,3528,3351,3260,3181,2971,2875,2797,2782,2796,2819,2793,2777,2748,2646,2511,2472,2352,2324,2245,2233,2217,2204,2200,2206,2216,2218,2246,2249,2262,2271,2276,2269,2243,2221,2211,2232,2369,2461,2562,2978,3126,3546,3646,3803,3794,3768,3567,3298,3199,3112,2877,2822,2740,2711,2702,2714,2736,2795,2813,2811,2800,2709,2674,2536,2496,2448,2339,2259,2245,2228,2214,2218,2229,2232,2262,2280,2290,2289,2292,2284,2283,2257,2269,2289,2336,2577,2704,2993,3308,3705,3859,3884,3704,3625,3446,3351,3266,3032,2976,2918,2823,2796,2807,2837,2834,2822,2810,2722,2688,2553,2513,2387,2356,2319,2254,2233,2214,2206,2215,2214,2234,2235,2253,2252,2257,2262,2257,2249,2239,2219,2208,2220,2241,2287,2532,2662,2957,3113,3280,3690,3790,3897,3883,3703,3623,3350,3268,3033,2977,2920,2821,2784,2791,2792,2816,2797,2786,2758,2662,2616,2528,2488,2440,2330,2294,2227,2206,2184,2176,2180,2185,2205,2206,2216,2224,2231,2233,2234,2222,2223,2212,2201,2200,2176,2177,2190,2208,2253,2489,2616,2751,3234,3661,3767,3837,3888,3719,3549,3279,3113,2919,2820,2801,2808,2815,2855,2857,2840,2815,2721,2676,2544,2496,2415,2384,2348,2282,2247,2249,2245,2262,2265,2276,2295,2313,2309,2312,2295,2290,2253,2244,2210,2213,2243,2277,2338,2625,2761,2902,3349,3474,3671,3734,3762,3702,3477,3391,3295,3031,2950,2825,2782,2742,2703,2733,2771,2808,2798,2721,2604,2556,2515,2385,2353,2292,2266,2252,2216,2215,2217,2218,2228,2246,2258,2262,2289,2290,2297,2302,2298,2292,2267,2252,2275,2425,2521,2916,3081,3544,3677,3784,3961,3956,3825,3753,3511,3420,3182,3111,2961,2923,2872,2864,2867,2873,2871,2862,2844,2764,2723,2591,2540,2497,2363,2331,2270,2243,2228,2191,2188,2194,2203,2220,2226,2225,2228,2221,2208,2197,2179,2174,2163,2167,2185,2278,2359,2454,2866,3343,3493,3618,3848,3861,3818,3696,3448,3273,3043,2885,2843,2816,2769,2770,2777,2779,2785,2769,2708,2672,2638,2508,2468,2424,2314,2281,2231,2215,2198,2181,2183,2191,2210,2221,2238,2247,2248,2256,2245,2243,2234,2209,2197,2173,2168,2218,2263,2529,2654,3113,3269,3665,3750,3842,3814,3633,3546,3459,3186,2963,2903,2858,2776,2772,2783,2795,2813,2847,2836,2813,2788,2670,2627,2487,2445,2334,2309,2284,2242,2229,2234,2236,2256,2271,2281,2279,2257,2249,2236,2213,2213,2231,2374,2464,2700,2841,2995,3442,3749,3797,3820,3729,3505,3415,3327,3070,2999,2877,2829,2793,2733,2733,2734,2765,2775,2770,2708,2678,2554,2512,2466,2345,2308,2251,2230,2211,2183,2180,2185,2188,2208,2211,2226,2227,2233,2231,2222,2214,2195,2185,2174,2184,2321,2406,2796,2956,3126,3592,3717,3885,3924,3936,3820,3751,3592,3506,3420,3176,2992,2945,2908,2834,2826,2820,2823,2818,2796,2777,2685,2643,2508,2461,2333,2234,2211,2190,2155,2149,2147,2150,2151,2166,2169,2174,2182,2186,2183,2183,2173,2169,2158,2149,2143,2119,2125,2146,2184,2423,2546,3015,3188,3643,3756,3841,3922,3894,3777,3703,3621,3355,3110,3043,2984,2859,2814,2813,2834,2841,2845,2823,2803,2705,2663,2524,2479,2356,2323,2248,2220,2208,2218,2226,2250,2258,2278,2283,2286,2289,2277,2269,2260,2231,2221,2208,2209,2221,2355,2669,2810,2963,3433,3568,3685,3869,3875,3807,3742,3664,3380,3093,3007,2934,2776,2725,2728,2740,2796,2834,2832,2823,2745,2708,2664,2520,2382,2344,2308,2231,2214,2193,2189,2187,2197,2217,2226,2232,2252,2254,2256,2256,2253,2234,2223,2214,2200,2212,2283,2348,2436,2827,3325,3479,3839,3908,3943,3900,3842,3614,3527,3259,3179,2982,2934,2838,2824,2814,2819,2824,2819,2763,2734,2613,2567,2424,2339,2268,2215,2168,2157,2163,2182,2194,2203,2207,2221,2221,2221,2216,2197,2186,2177,2151,2154,2237,2305,2637,3123,3290,3449,3813,3932,3912,3872,3658,3392,3302,3218,3003,2950,2901,2817,2803,2800,2805,2808,2818,2782,2759,2727,2610,2474,2430,2386,2284,2255,2204,2192,2186,2186,2206,2210,2232,2235,2242,2248,2248,2242,2239,2215,2186,2166,2155,2172,2310,2399,2782,2944,3431,3575,3858,3897,3839,3777,3514,3418,3127,3045,2965,2805,2771,2745,2749,2756,2812,2847,2849,2837,2765,2635,2536,2399,2265,2239,2205,2199,2208,2241,2253,2267,2271,2263,2260,2227,2212,2216,2242,2419,2526,2947,3114,3573,3796,3924,3869,3655,3389,3295,3123,3053,2983,2842,2774,2772,2770,2793,2793,2796,2761,2740,2676,2632,2592,2453,2330,2291,2213,2191,2164,2157,2164,2165,2185,2187,2195,2205,2205,2211,2209,2210,2193,2189,2158,2144,2147,2170,2336,2708,2866,3040,3528,3667,3779,3962,3958,3879,3818,3744,3495,3229,3155,3082,2927,2837,2828,2818,2823,2816,2811,2792,2714,2673,2634,2491,2358,2314,2278,2188,2142,2130,2128,2127,2146,2147,2157,2169,2176,2183,2178,2177,2168,2152,2140,2124,2112,2151,2335,2446,2572,3062,3232,3686,3791,3949,3936,3775,3695,3425,3326,3071,2998,2855,2823,2809,2803,2819,2847,2854,2865,2839,2755,2711,2670,2521,2478,2350,2321,2244,2234,2210,2222,2224,2236,2257,2269,2281,2287,2275,2273,2259,2229,2188,2186,2184,2284,2694,2837,3159,3467,3706,3791,3838,3822,3607,3517,3414,3122,3027,2951,2765,2733,2686,2697,2739,2761,2783,2781,2781,2712,2597,2546,2504,2363,2328,2288,2211,2166,2166,2160,2175,2194,2208,2213,2240,2241,2249,2256,2252,2245,2215,2212,2197,2200,2214,2256,2494,2937,3275,3712,3964,3982,3980,3829,3601,3506,3419,3160,3092,2926,2895,2834,2835,2843,2852,2838,2827,2740,2617,2520,2378,2305,2250,2217,2202,2199,2212,2217,2221,2223,2209,2209,2200,2189,2166,2164,2154,2143,2140,2151,2255,2554,2693,2857,3362,3779,3871,3942,3951,3772,3690,3604,3308,3041,2963,2901,2758,2736,2713,2707,2707,2717,2721,2711,2666,2557,2517,2467,2333,2212,2185,2154,2106,2090,2096,2096,2124,2129,2143,2164,2184,2185,2192,2191,2188,2180,2170,2154,2130,2133,2152,2230,2498,2635,3123,3294,3719,3826,3950,3937,3758,3679,3393,3300,3035,2971,2830,2813,2806,2824,2838,2891,2886,2874,2844,2734,2682,2582,2536,2483,2361,2272,2258,2239,2225,2220,2226,2238,2263,2265,2275,2280,2280,2270,2267,2232,2224,2188,2191,2260,2522,2649,2803,3300,3459,3601,3904,3940,3905,3842,3613,3331,3245,3156,2955,2829,2813,2797,2804,2807,2818,2819,2812,2738,2706,2571,2526,2383,2344,2239,2217,2165,2161,2151,2157,2176,2189,2196,2199,2204,2199,2200,2186,2185,2164,2160,2134,2132,2153,2191,2417,2543,2684,3197,3657,3780,3875,3983,3997,3878,3817,3746,3497,3234,3161,3091,2941,2863,2856,2849,2858,2856,2857,2817,2728,2684,2643,2497,2365,2323,2291,2210,2173,2165,2165,2169,2177,2192,2201,2209,2212,2210,2208,2195,2194,2186,2176,2157,2154,2144,2129,2129,2149,2179,2401,2516,2657,2984,3156,3626,3747,3852,3976,3856,3785,3708,3425,3142,3058,2883,2844,2809,2814,2832,2888,2907,2912,2902,2809,2769,2615,2566,2419,2381,2285,2237,2227,2225,2224,2232,2234,2258,2262,2272,2280,2279,2280,2273,2249,2235,2199,2176,2209,2397,2907,3060,3498,3701,3802,3611,3534,3261,3013,2940,2882,2755,2719,2719,2731,2764,2775,2776,2725,2625,2582,2453,2334,2304,2274,2215,2187,2188,2186,2199,2214,2223,2227,2236,2243,2247,2249,2246,2232,2226,2210,2194,2194,2214,2367,2692,2828,3278,3415,3540,3777,3808,3794,3755,3705,3498,3423,3276,3204,3140,2984,2890,2868,2857,2845,2846,2844,2829,2772,2746,2714,2642,2606,2491,2457,2424,2345,2295,2287,2278,2271,2271,2273,2276,2277,2283,2282,2283,2281,2277,2276,2272,2270,2256,2252,2240,2234,2229,2216,2281,2330,2478,2688,3085,3220,3554,3677,3694,3554,3487,3415,3198,3014,2966,2925,2855,2852,2861,2872,2899,2888,2873,2851,2759,2721,2684,2570,2473,2427,2381,2372,2360,2358,2362,2371,2373,2375,2375,2374,2372,2356,2348,2320,2312,2307,2321,2447,2521,2711,2946,3190,3302,3401,3586,3604,3582,3547,3500,3311,3242,3173,2990,2861,2832,2810,2786,2802,2812,2811,2803,2747,2719,2687,2582,2545,2509,2444,2415,2346,2329,2316,2293,2290,2290,2292,2295,2303,2311,2312,2312,2309,2300,2296,2290,2269,2262,2256,2252,2328,2383,2455,2763,2892,3159,3288,3407,3656,3710,3688,3651,3545,3483,3418,3350,3164,3015,2944,2880,2868,2858,2854,2838,2788,2763,2732,2628,2590,2517,2482,2447,2367,2344,2311,2299,2288,2274,2270,2270,2268,2271,2271,2270,2267,2265,2258,2253,2241,2234,2215,2208,2190,2186,2189,2251,2449,2662,2920,3195,3437,3531,3607,3694,3683,3604,3546,3483,16
2658,2591,2512,2493,2465,2445,2447,2443,2456,2459,2471,2494,2530,2536,2550,2570,2610,2635,2807,2887,3206,3319,3638,3711,3835,3834,3761,3712,3664,3485,3430,3256,3212,3101,3087,3072,3086,3135,3191,3197,3206,3181,3168,3141,3061,2956,2926,2888,2799,2714,2695,2669,2615,2561,2550,2530,2493,2482,2505,2541,2584,2814,2906,3012,3309,3501,3523,3539,3482,3350,3289,3236,3052,2889,2837,2801,2725,2723,2723,2783,2899,2921,2961,2940,2928,2903,2818,2704,2671,2630,2529,2441,2424,2401,2362,2352,2406,2449,2682,2776,3108,3305,3442,3505,3476,3298,3121,3055,2882,2826,2716,2692,2686,2711,2799,2826,2857,2907,2899,2876,2854,2742,2605,2506,2367,2333,2296,2223,2176,2171,2164,2194,2224,2339,2426,2521,2882,3244,3349,3426,3546,3494,3456,3403,3161,3102,2852,2681,2637,2524,2488,2498,2542,2591,2596,2603,2578,2565,2540,2472,2363,2333,2263,2197,2190,2183,2266,2471,2566,2659,3031,3176,3184,3146,3107,2977,2923,2776,2723,2605,2568,2516,2505,2522,2530,2575,2583,2599,2599,2597,2554,2540,2463,2444,2372,2318,2298,2287,2237,2203,2189,2189,2228,2409,2490,2589,2899,3004,3087,3250,3250,3230,3189,3050,2886,2840,2785,2655,2555,2538,2519,2520,2536,2579,2616,2615,2619,2581,2522,2506,2437,2420,2355,2339,2278,2233,2212,2202,2177,2193,2217,2400,2693,2811,2921,3206,3308,3325,3231,3077,3026,2968,2810,2673,2642,2610,2569,2565,2602,2617,2675,2686,2707,2700,2671,2650,2596,2572,2510,2484,2427,2403,2388,2334,2298,2283,2278,2250,2264,2284,2329,2540,2642,2977,3095,3355,3409,3443,3426,3297,3246,3185,3004,2940,2826,2776,2724,2612,2558,2559,2560,2605,2655,2680,2691,2689,2674,2623,2607,2538,2521,2455,2441,2407,2388,2377,2338,2331,2342,2375,2541,2812,2909,3009,3238,3288,3311,3305,3188,3142,3082,2912,2737,2688,2635,2533,2491,2498,2503,2564,2583,2649,2658,2646,2608,2583,2522,2495,2436,2411,2362,2344,2336,2298,2281,2275,2334,2377,2443,2700,2811,3132,3230,3404,3432,3407,3380,3240,3082,3023,2974,2820,2711,2682,2669,2648,2659,2665,2717,2745,2753,2747,2721,2698,2624,2586,2482,2359,2323,2279,2172,2135,2109,2028,1980,1965,1965,2022,2227,2317,2426,2768,3061,3121,3173,3208,3145,3104,3067,2927,2886,2838,2721,2635,2624,2612,2627,2675,2701,2717,2763,2764,2762,2748,2704,2680,2661,2590,2528,2488,2436,2426,2390,2371,2360,2361,2369,2489,2553,2837,2944,3062,3374,3455,3582,3594,3535,3500,3347,3183,3123,3072,2925,2839,2817,2811,2818,2835,2847,2895,2907,2908,2897,2855,2778,2754,2723,2639,2608,2532,2504,2445,2391,2381,2365,2344,2345,2366,2569,2955,3055,3324,3447,3459,3398,3362,3202,3147,2958,2840,2708,2636,2634,2632,2674,2723,2740,2744,2745,2701,2684,2656,2581,2549,2495,2472,2440,2373,2347,2295,2275,2264,2278,2427,2502,2806,2916,3229,3302,3430,3433,3429,3329,3285,3106,2922,2858,2805,2661,2594,2582,2586,2611,2654,2660,2670,2655,2609,2584,2564,2481,2458,2425,2348,2268,2249,2221,2167,2119,2112,2097,2084,2084,2187,2249,2551,2945,3085,3208,3496,3545,3582,3544,3391,3335,3143,2967,2908,2864,2738,2712,2722,2744,2757,2759,2754,2699,2680,2650,2562,2461,2433,2398,2315,2235,2217,2193,2144,2103,2084,2080,2071,2086,2208,2374,2734,3133,3444,3504,3584,3569,3466,3407,3224,3151,3087,2894,2755,2717,2694,2660,2686,2692,2705,2712,2711,2667,2650,2565,2503,2408,2308,2282,2250,2154,2106,2089,2063,2044,2045,2040,2069,2204,2287,2379,2745,2880,3021,3371,3567,3586,3595,3515,3352,3283,3218,3004,2822,2768,2728,2651,2655,2663,2681,2720,2732,2730,2716,2650,2626,2592,2499,2461,2365,2330,2248,2198,2138,2110,2093,2096,2093,2108,2113,2202,2254,2521,2632,3031,3159,3485,3553,3647,3637,3535,3476,3276,3199,3129,2911,2855,2720,2700,2682,2699,2751,2774,2802,2807,2768,2751,2656,2541,2495,2457,2323,2288,2245,2153,2079,2066,2048,2059,2082,2189,2271,2359,2713,2837,3194,3278,3440,3454,3435,3321,3202,3131,3067,2798,2650,2626,2591,2633,2647,2670,2704,2701,2682,2668,2586,2560,2523,2424,2320,2295,2262,2189,2131,2123,2108,2091,2088,2106,2130,2314,2404,2780,2921,3347,3461,3704,3738,3744,3707,3558,3488,3274,3195,2999,2939,2824,2798,2778,2775,2782,2786,2785,2742,2724,2633,2603,2492,2459,2351,2261,2228,2205,2130,2115,2093,2057,2031,2032,2027,2035,2035,2057,2087,2123,2344,2699,2846,2991,3400,3655,3705,3725,3691,3647,3600,3405,3192,3121,3060,2898,2815,2799,2797,2801,2815,2809,2806,2747,2655,2613,2578,2449,2412,2366,2259,2163,2141,2113,2044,2020,2010,2007,2007,2013,2011,2024,2022,2031,2028,2052,2074,2257,2349,2740,2890,3349,3474,3744,3786,3801,3768,3615,3547,3331,3254,3189,3009,2969,2887,2883,2883,2895,2904,2906,2863,2783,2744,2709,2575,2535,2486,2359,2315,2243,2216,2181,2114,2067,2063,2051,2047,2048,2055,2055,2073,2082,2089,2087,2093,2087,2089,2089,2197,2260,2350,2703,3150,3285,3415,3673,3730,3703,3539,3475,3398,3174,2967,2918,2870,2803,2808,2829,2843,2896,2899,2895,2875,2798,2679,2641,2594,2468,2424,2317,2282,2207,2184,2148,2137,2133,2130,2146,2145,2163,2169,2265,2319,2586,2697,2825,3210,3329,3576,3658,3643,3621,3469,3256,3173,3097,2873,2723,2687,2671,2668,2688,2704,2765,2775,2782,2767,2699,2587,2549,2504,2380,2260,2230,2195,2118,2061,2053,2041,2031,2028,2034,2041,2049,2063,2083,2210,2291,2625,2771,3235,3387,3637,3730,3809,3903,3902,3876,3746,3544,3474,3396,3195,3039,3008,2979,2955,2965,2974,2973,2960,2888,2857,2814,2685,2634,2495,2446,2326,2286,2195,2164,2104,2084,2054,2044,2039,2036,2041,2045,2051,2053,2057,2057,2070,2169,2431,2548,2688,3142,3555,3655,3741,3859,3862,3759,3705,3482,3403,3315,3089,2914,2880,2848,2818,2823,2832,2831,2821,2732,2694,2579,2531,2490,2354,2237,2195,2165,2076,2057,2003,1996,1971,1971,1967,1963,1967,1967,1975,1973,1979,1980,1985,1982,1986,2029,2076,2134,2432,2864,3030,3185,3678,3836,3842,3770,3584,3513,3430,3190,3113,2939,2896,2841,2836,2865,2874,2897,2892,2887,2827,2730,2686,2556,2506,2463,2332,2228,2194,2170,2109,2082,2074,2075,2076,2096,2097,2105,2114,2121,2152,2184,2358,2447,2545,2896,3225,3314,3379,3475,3418,3378,3326,3137,2925,2863,2802,2679,2656,2648,2671,2747,2769,2792,2816,2786,2762,2738,2635,2481,2446,2337,2251,2225,2206,2156,2148,2136,2129,2135,2151,2175,2341,2637,2761,2888,3269,3525,3574,3599,3577,3539,3497,3319,3128,3063,2906,2864,2792,2781,2798,2808,2847,2852,2846,2829,2758,2724,2615,2575,2538,2421,2322,2291,2268,2203,2190,2158,2156,2152,2157,2170,2183,2209,2213,2232,2281,2322,2372,2622,2977,3108,3230,3534,3672,3682,3672,3577,3415,3359,3296,3131,3078,3037,2937,2903,2905,2927,2942,2935,2929,2873,2850,2751,2717,2605,2500,2463,2433,2344,2322,2298,2231,2206,2199,2191,2183,2183,2179,2170,2145,2138,2125,2126,2145,2303,2383,2712,2835,3183,3271,3439,3457,3428,3392,3258,3204,3052,3001,2890,2844,2828,2845,2882,2898,2894,2842,2751,2711,2672,2544,2378,2340,2235,2206,2179,2116,2102,2077,2075,2081,2105,2116,2126,2158,2185,2197,2213,2321,2545,2643,2749,3089,3194,3288,3467,3495,3475,3443,3295,3233,3037,2973,2813,2776,2729,2733,2794,2824,2853,2924,2937,2936,2923,2855,2758,2687,2580,2515,2428,2359,2312,2307,2312,2415,2481,2770,2888,3254,3362,3583,3620,3617,3586,3427,3360,3142,3069,2874,2823,2781,2712,2736,2752,2795,2802,2797,2787,2770,2692,2584,2545,2504,2386,2252,2223,2157,2140,2125,2093,2093,2112,2147,2354,2708,2848,2993,3391,3640,3680,3700,3654,3502,3437,3371,3170,3108,3049,2907,2825,2810,2802,2796,2791,2785,2775,2716,2687,2582,2542,2415,2332,2217,2124,2076,2025,1996,1994,1991,2004,2020,2049,2223,2543,2676,2818,3229,3344,3577,3614,3609,3579,3535,3369,3174,3111,2943,2900,2805,2788,2765,2766,2764,2759,2719,2698,2670,2572,2451,2410,2365,2245,2138,2108,2078,2015,1978,1971,1964,1958,1956,1960,1964,1966,1967,1970,1970,1973,1976,1977,1984,2000,2121,2201,2294,2680,3145,3293,3421,3695,3768,3757,3725,3578,3309,3240,3073,2966,2950,2937,2943,2950,2960,2975,2956,2935,2913,2815,2694,2647,2603,2471,2359,2323,2295,2223,2209,2186,2177,2173,2166,2170,2179,2185,2193,2198,2196,2197,2182,2185,2251,2304,2547,2659,2776,3152,3259,3494,3557,3548,3519,3377,3175,2980,2870,2746,2775,2822,2839,2846,2841,2824,2805,2714,2601,2559,2519,2397,2295,2263,2238,2172,2138,2125,2120,2125,2126,2142,2153,2157,2156,2182,2381,2468,2831,3256,3390,3504,3745,3801,3786,3752,3599,3533,3467,3254,3077,3028,2992,2917,2932,2944,2904,2883,2783,2747,2614,2522,2353,2281,2252,2171,2155,2114,2109,2093,2095,2093,2101,2176,2234,2495,2616,2742,3165,3293,3596,3653,3717,3697,3626,3574,3511,3304,3227,3023,2960,2827,2793,2777,2748,2758,2756,2758,2727,2664,2631,2600,2481,2283,2240,2145,2067,2034,2011,2003,1999,2029,2051,2223,2531,2667,2802,3230,3542,3613,3654,3681,3555,3498,3425,3202,3121,3050,2859,2748,2723,2714,2710,2730,2727,2728,2689,2614,2544,2421,2338,2224,2186,2121,2070,2018,1987,1987,1985,1992,2006,2016,2028,2036,2077,2118,2325,2434,2551,2987,3135,3530,3623,3792,3766,3731,3675,3470,3386,3146,3069,2896,2852,2825,2783,2800,2805,2814,2811,2769,2740,2713,2600,2475,2427,2386,2260,2227,2127,2105,2045,2036,2023,2016,2013,2033,2037,2065,2082,2091,2091,2109,2194,2257,2330,2662,2795,2944,3361,3662,3718,3759,3747,3601,3527,3453,3197,3119,2974,2912,2869,2787,2804,2818,2842,2888,2900,2888,2876,2791,2713,2587,2409,2363,2230,2183,2168,2147,2120,2109,2112,2189,2250,2319,2639,2766,3193,3319,3622,3735,3734,3708,3556,3304,3214,3115,2861,2786,2731,2617,2610,2621,2642,2684,2699,2700,2688,2680,2602,2497,2452,2415,2285,2175,2137,26
2727,2716,2718,2711,2711,2710,2715,2710,2711,2704,2700,2701,2693,2690,2681,2683,2676,2669,2650,2652,2645,2673,2679,2699,2774,2812,2826,2831,2834,2826,2812,2787,2786,2775,2761,2745,2748,2743,2749,2747,2751,2746,2743,2726,2727,2718,2709,2699,2690,2680,2664,2666,2655,2657,2651,2655,2649,2653,2649,2672,2677,2695,2729,2742,2804,2815,2832,2846,2850,2842,2830,2827,2795,2775,2762,2760,2742,2743,2738,2744,2743,2747,2743,2741,2722,2722,2712,2700,2679,2680,2671,2665,2652,2655,2649,2650,2646,2650,2651,2657,2679,2696,2739,2791,2799,2814,2823,2816,2805,2800,2767,2741,2728,2722,2708,2697,2696,2687,2684,2677,2679,2674,2669,2654,2654,2645,2637,2624,2625,2619,2616,2609,2612,2608,2609,2605,2610,2637,2646,2698,2735,2775,2799,2797,2793,2784,2769,2759,2756,2733,2722,2716,2717,2708,2709,2705,2706,2696,2689,2681,2680,2663,2655,2648,2648,2637,2639,2634,2634,2628,2631,2626,2632,2647,2661,2670,2724,2773,2797,2815,2812,2813,2795,2779,2769,2766,2744,2735,2729,2731,2727,2722,2723,2718,2720,2706,2695,2686,2685,2666,2665,2648,2648,2637,2639,2634,2635,2631,2634,2629,2634,2645,2659,2667,2717,2731,2781,2799,2801,2790,2779,2759,2747,2731,2721,2714,2708,2710,2706,2709,2704,2699,2691,2689,2666,2651,2641,2639,2621,2616,2609,2611,2610,2605,2608,2604,2608,2609,2607,2613,2615,2646,2690,2711,2726,2771,2788,2783,2767,2752,2729,2713,2698,2699,2694,2695,2693,2695,2692,2689,2683,2681,2666,2657,2649,2646,2634,2633,2628,2623,2622,2616,2615,2613,2610,2613,2614,2641,2687,2708,2725,2785,2816,2822,2821,2816,2794,2788,2777,2754,2744,2724,2717,2710,2707,2709,2707,2708,2703,2699,2695,2688,2683,2683,2681,2683,2681,2675,2669,2665,2641,2616,2614,2604,2612,2618,2631,2676,2697,2752,2770,2802,2809,2808,2806,2800,2787,2775,2751,2738,2712,2701,2686,2675,2676,2671,2665,2652,2648,2640,2624,2615,2612,2590,2586,2574,2566,2563,2547,2547,2536,2537,2534,2539,2541,2548,2572,2590,2605,2671,2740,2763,2778,2810,2806,2803,2794,2770,2752,2736,2725,2707,2686,2679,2676,2672,2669,2665,2662,2657,2646,2639,2627,2620,2610,2605,2601,2597,2597,2594,2595,2602,2634,2646,2665,2721,2775,2785,2796,2802,2793,2785,2780,2757,2740,2733,2729,2715,2715,2712,2712,2709,2710,2707,2699,2685,2683,2677,2665,2653,2652,2649,2645,2641,2641,2640,2647,2652,2663,2705,2761,2778,2796,2830,2833,2828,2823,2798,2770,2760,2752,2732,2727,2721,2714,2712,2712,2711,2705,2695,2691,2676,2671,2656,2652,2648,2636,2627,2625,2622,2616,2615,2627,2636,2682,2701,2761,2779,2814,2819,2816,2812,2792,2784,2761,2754,2747,2728,2715,2713,2711,2706,2699,2696,2693,2682,2669,2664,2660,2650,2641,2638,2636,2630,2628,2626,2621,2622,2627,2632,2670,2706,2725,2745,2763,2805,2813,2816,2813,2809,2791,2783,2777,2754,2739,2734,2732,2724,2724,2723,2722,2713,2699,2692,2687,2667,2650,2646,2643,2632,2630,2628,2624,2622,2621,2620,2619,2624,2630,2639,2681,2737,2770,2802,2804,2799,2793,2770,2761,2739,2732,2718,2715,2712,2712,2713,2713,2706,2703,2687,2681,2663,2658,2652,2638,2628,2626,2623,2618,2615,2614,2614,2615,2627,2637,2649,2702,2763,2782,2798,2827,2829,2829,2814,2791,2782,2776,2752,2733,2728,2725,2713,2707,2704,2701,2689,2685,2678,2665,2655,2640,2631,2620,2618,2615,2612,2606,2605,2602,2599,2597,2601,2606,2646,2662,2684,2745,2792,2799,2805,2797,2778,2769,2763,2741,2726,2721,2718,2708,2707,2699,2699,2690,2689,2673,2669,2651,2648,2631,2628,2614,2613,2604,2603,2598,2600,2596,2597,2595,2592,2588,2587,2585,2604,2672,2690,2754,2799,2798,2788,2780,2774,2749,2729,2720,2716,2708,2701,2698,2694,2694,2689,2683,2677,2674,2656,2643,2634,2620,2615,2611,2610,2608,2611,2609,2613,2609,2612,2609,2608,2606,2613,2619,2662,2678,2738,2754,2792,2794,2797,2780,2745,2738,2713,2701,2696,2696,2693,2697,2694,2695,2687,2684,2668,2665,2647,2644,2630,2628,2619,2620,2616,2619,2618,2621,2619,2621,2617,2619,2630,2642,2653,2706,2760,2777,2788,2805,2791,2787,2777,2754,2730,2727,2720,2711,2708,2710,2708,2710,2710,2706,2707,2695,2682,2675,2671,2653,2634,2633,2624,2623,2621,2623,2622,2624,2621,2625,2623,2625,2622,2637,2670,2688,2703,2760,2796,2804,2804,2797,2788,2784,2761,2746,2738,2737,2724,2722,2719,2721,2716,2711,2706,2706,2696,2688,2676,2669,2668,2652,2652,2639,2641,2632,2634,2630,2634,2629,2632,2628,2630,2626,2630,2647,2662,2673,2707,2729,2776,2792,2798,2808,2790,2786,2775,2760,2756,2735,2734,2726,2725,2723,2727,2724,2728,2722,2723,2707,2706,2687,2686,2676,2668,2660,2654,2654,2643,2643,2638,2642,2637,2639,2635,2639,2639,2637,2646,2650,2689,2731,2751,2761,2791,2786,2776,2759,2732,2723,2715,2710,2711,2709,2715,2711,2713,2704,2696,2688,2686,2670,2662,2655,2655,2644,2644,2640,2634,2636,2630,2633,2632,2640,2667,2718,2732,2752,2791,2803,2804,2804,2784,2781,2771,2753,2733,2726,2722,2715,2717,2713,2710,2695,2695,2688,2679,2662,2662,2657,2652,2647,2649,2641,2639,2639,2633,2631,2628,2631,2664,2677,2697,2750,2770,2781,2811,2806,2804,2794,2779,2769,2754,2744,2735,2722,2723,2713,2715,2703,2702,2694,2675,2675,2657,2652,2645,2647,2643,2639,2639,2635,2639,2634,2633,2628,2631,2621,2623,2617,2625,2649,2669,2717,2741,2784,2798,2802,2804,2784,2782,2757,2754,2733,2733,2718,2714,2715,2706,2707,2698,2688,2668,2668,2658,2651,2640,2643,2636,2638,2633,2637,2632,2635,2630,2633,2625,2625,2622,2630,2652,2702,2715,2738,2777,2797,2792,2793,2769,2767,2755,2737,2716,2718,2711,2711,2705,2710,2705,2701,2682,2681,2671,2661,2651,2642,2643,2636,2635,2630,2633,2627,2633,2628,2632,2627,2629,2624,2628,2631,2678,2699,2736,2749,2769,2797,2805,2795,2793,2769,2766,2744,2742,2725,2726,2716,2719,2713,2715,2703,2704,2685,2683,2662,2644,2643,2636,2633,2625,2628,2624,2629,2626,2630,2626,2627,2622,2626,2621,2643,2652,2671,2720,2778,2787,2802,2807,2797,2786,2784,2759,2745,2737,2737,2723,2725,2719,2721,2712,2705,2695,2673,2663,2653,2638,2639,2629,2623,2620,2624,2619,2625,2620,2622,2621,2611,2625,2668,2682,2747,2762,2784,2810,2818,2804,2802,2774,2772,2746,2746,2729,2732,2724,2729,2723,2713,2702,2691,2690,2665,2665,2654,2644,2629,2632,2625,2626,2621,2625,2625,2620,2617,2619,2618,2628,2677,2690,2715,2769,2811,2810,2815,2809,2798,2779,2765,2763,2736,2727,2719,2722,2715,2720,2716,2717,2701,2701,2678,2677,2653,2652,2631,2633,2618,2621,2614,2617,2613,2617,2613,2618,2613,2617,2611,2613,2613,2624,2690,2715,2775,2824,2825,2827,2816,2813,2785,2781,2753,2752,2732,2733,2721,2724,2724,2718,2720,2706,2706,2685,2683,2673,2658,2638,2638,2629,2624,2617,2617,2612,2615,2611,2615,2611,2615,2606,2610,2604,2609,2608,2645,2657,2724,2743,2769,2813,2830,2822,2821,2793,2773,2760,2758,2736,2723,2726,2719,2722,2716,2714,2697,2695,2685,2672,2650,2648,2639,2631,2620,2622,2616,2620,2616,2620,2616,2620,2615,2618,2617,2615,2626,2655,2718,2735,2762,2808,2829,2823,2823,2794,2769,2755,2728,2718,2722,2721,2724,2720,2701,2700,2676,2675,2662,2650,2632,2633,2624,2623,2622,2618,2622,2617,2621,2614,2621,2638,2656,2667,2733,2749,2775,2817,2833,2826,2796,2773,2759,2733,2728,2722,2722,2727,2718,2721,2703,2702,2692,2679,2656,2655,2636,2638,2624,2622,2624,2620,2614,2616,2610,2616,2614,2650,2662,2685,2747,2812,2821,2834,2836,2824,2811,2778,2750,2749,2734,2733,2728,2720,2721,2703,2703,2682,2659,2658,2641,2642,2627,2628,2621,2611,2615,2610,2600,2604,2599,2603,2614,2649,2673,2690,2764,2815,2833,2835,2826,2822,2795,2774,2763,2760,2741,2730,2732,2724,2722,2713,2713,2694,2692,2682,2670,2652,2651,2643,2639,2631,2632,2627,2626,2618,2619,2610,2611,2604,2610,2631,2650,2664,2730,2748,2805,2812,2825,2819,2804,2792,2770,2759,2743,2733,2726,2721,2717,2713,2705,2704,2683,2681,2670,2661,2660,2645,2645,2633,2634,2626,2621,2622,2613,2614,2607,2605,2603,2614,2669,2731,2756,2772,2817,2823,2824,2815,2800,2789,2773,2750,2742,2729,2726,2719,2720,2702,2688,2678,2663,2653,2642,2634,2634,2622,2618,2620,2613,2616,2610,2603,2599,2593,2597,2617,2637,2650,2720,2739,2809,2826,2820,2820,2798,2783,2772,2769,2749,2741,2733,2733,2723,2718,2708,2696,2686,2671,2660,2657,2637,2636,2621,2622,2612,2614,2607,2609,2604,2604,2598,2590,2586,2580,2582,2579,2588,2613,2678,2746,2790,2825,2824,2818,2792,2778,2761,2749,2736,2734,2730,2729,2714,2713,2704,2678,2661,2652,2641,2633,2628,2622,2624,2616,2618,2613,2615,2607,2608,2603,2598,2588,2591,2607,2623,2679,2705,2725,2791,2803,2816,2818,2805,2795,2790,2763,2738,2738,2727,2728,2724,2720,2714,2698,2690,2685,2661,2635,2623,2618,2610,2612,2607,2602,2604,2596,2596,2591,2586,2587,2583,2589,2642,2666,2736,2782,2829,2831,2833,2813,2807,2797,2779,2757,2750,2743,2739,2740,2730,2720,2712,2709,2685,2666,2656,2652,2633,2622,2616,2616,2607,2609,2604,2606,2600,2601,2597,2594,2583,2583,2578,2586,2621,2644,2664,2743,2806,2823,2838,2840,2833,2829,2806,2786,2776,2763,2756,2749,2745,2743,2738,2731,2722,2719,2695,2675,2666,2649,2642,2631,2625,2617,2617,2615,2611,2608,2604,2595,2598,2615,2627,2688,2709,2781,2797,2829,2822,2820,2810,2787,2756,2748,2737,2731,2728,2726,2721,2719,2700,2681,2672,2652,2643,2629,2623,2620,2611,2608,2606,2606,2604,2605,2600,2601,2594,2593,2589,2592,2599,2637,2657,2678,2752,2810,2824,2830,2832,2816,2811,2782,2775,2755,2747,2743,2738,2729,2723,2697,2681,2675,2666,2647,2641,2628,2623,2622,2614,2613,2607,2608,2604,2601,2599,2594,2591,2585,2589,2618,2637,2705,2732,2755,2817,2840,2841,2837,2822,2800,2795,2787,12
2471,2471,2504,2512,2536,2550,2553,2565,2557,2554,2527,2505,2434,2404,2385,2333,2329,2352,2385,2537,2791,2887,2997,3300,3487,3505,3509,3448,3388,3320,3234,3055,2808,2672,2609,2481,2407,2401,2392,2410,2445,2462,2468,2483,2477,2461,2447,2424,2413,2409,2389,2358,2298,2288,2282,2290,2415,2476,2554,2716,2792,2990,3027,3057,3072,3058,3044,3015,2941,2898,2734,2685,2634,2528,2492,2503,2516,2583,2625,2634,2631,2614,2587,2539,2522,2495,2474,2469,2457,2445,2447,2511,2552,2673,2833,3085,3153,3282,3289,3230,3185,3135,3015,2947,2762,2710,2668,2570,2536,2534,2545,2551,2596,2626,2660,2666,2628,2600,2537,2502,2463,2379,2340,2348,2365,2505,2721,2883,3088,3165,3180,3185,3174,3085,2992,2828,2724,2681,2638,2605,2536,2540,2552,2570,2616,2636,2641,2638,2633,2575,2547,2512,2433,2372,2360,2339,2345,2356,2370,2458,2512,2726,2813,2897,3136,3259,3271,3262,3207,3162,3108,2940,2881,2729,2686,2628,2610,2593,2582,2608,2623,2635,2668,2672,2672,2668,2659,2623,2594,2561,2542,2528,2479,2439,2425,2416,2399,2409,2457,2497,2553,2853,3095,3267,3275,3170,3007,2949,2888,2730,2623,2604,2591,2588,2596,2637,2653,2665,2685,2690,2679,2658,2613,2595,2545,2527,2484,2459,2444,2444,2510,2553,2752,2832,3081,3150,3279,3289,3285,3265,3142,3025,2960,2899,2837,2679,2580,2556,2570,2618,2635,2668,2673,2658,2645,2565,2542,2470,2446,2401,2382,2363,2332,2336,2424,2481,2722,3009,3098,3303,3310,3244,3143,2956,2829,2669,2573,2556,2566,2615,2631,2664,2657,2645,2577,2556,2494,2475,2431,2419,2395,2391,2424,2457,2506,2724,3027,3131,3228,3433,3465,3477,3449,3413,3240,3173,3102,2964,2902,2745,2710,2680,2643,2658,2670,2697,2701,2686,2673,2654,2585,2558,2531,2454,2393,2361,2339,2323,2310,2312,2361,2520,2597,2685,2982,3241,3295,3332,3327,3295,3194,3132,3068,2875,2819,2681,2602,2585,2581,2590,2617,2626,2633,2629,2619,2569,2499,2477,2398,2361,2355,2342,2344,2381,2415,2459,2662,2938,3035,3261,3333,3303,3261,3077,3003,2931,2724,2577,2544,2511,2539,2560,2579,2599,2640,2644,2615,2579,2555,2534,2509,2441,2380,2365,2327,2319,2303,2305,2355,2397,2596,2685,3061,3136,3261,3208,3159,3098,3031,2800,2593,2536,2411,2413,2431,2454,2485,2554,2621,2688,2701,2676,2610,2586,2507,2485,2426,2414,2393,2385,2382,2374,2377,2383,2389,2405,2506,2567,2816,2920,3225,3313,3382,3468,3481,3407,3355,3291,3078,2867,2810,2754,2648,2615,2621,2628,2656,2683,2702,2674,2657,2632,2523,2443,2416,2343,2318,2312,2313,2313,2320,2333,2341,2360,2378,2479,2542,2790,2894,2996,3287,3435,3447,3364,3312,3103,3032,2825,2771,2718,2680,2608,2612,2620,2637,2678,2695,2686,2678,2619,2569,2514,2488,2411,2393,2358,2341,2318,2312,2312,2313,2319,2330,2333,2340,2354,2361,2370,2380,2383,2397,2493,2556,2810,2918,3234,3329,3489,3504,3494,3424,3372,3157,3084,3007,2812,2684,2664,2657,2669,2722,2733,2749,2740,2731,2667,2583,2550,2466,2391,2375,2357,2320,2321,2321,2343,2351,2368,2375,2387,2393,2396,2453,2613,2697,3109,3312,3391,3458,3505,3465,3285,3208,3054,2982,2910,2850,2746,2704,2644,2637,2644,2679,2727,2733,2728,2713,2650,2617,2523,2488,2459,2400,2349,2290,2253,2252,2244,2249,2254,2256,2259,2291,2324,2424,2577,2879,2990,3089,3319,3367,3349,3201,3136,2913,2842,2766,2525,2432,2413,2417,2425,2470,2475,2485,2475,2444,2396,2385,2367,2335,2322,2301,2289,2285,2269,2223,2206,2191,2206,2310,2472,2840,2975,3390,3679,3733,3738,3702,3507,3432,3192,3125,3057,2921,2889,2864,2867,2929,2970,2970,2971,2931,2854,2816,2717,2678,2591,2560,2502,2482,2471,2451,2435,2428,2441,2533,2593,2831,2932,3215,3296,3419,3426,3406,3268,3045,2972,2892,2700,2578,2563,2561,2580,2597,2667,2700,2705,2651,2565,2539,2449,2427,2400,2331,2308,2301,2325,2506,2579,2966,3235,3290,3349,3325,3293,3116,3047,2827,2764,2603,2570,2516,2519,2555,2577,2623,2634,2625,2615,2548,2525,2441,2419,2393,2342,2325,2300,2291,2302,2316,2455,2526,2816,2921,3221,3292,3397,3387,3281,3221,3034,2967,2910,2752,2718,2638,2631,2624,2651,2654,2644,2597,2570,2463,2440,2356,2317,2313,2302,2307,2310,2320,2328,2428,2635,2827,3133,3370,3376,3308,3255,3083,3018,2856,2806,2706,2679,2647,2640,2646,2655,2659,2648,2643,2586,2567,2537,2463,2388,2351,2322,2315,2290,2293,2288,2290,2307,2317,2336,2340,2337,2343,2375,2401,2580,2857,2968,3067,3319,3361,3394,3384,3350,3199,3131,2949,2889,2761,2724,2672,2660,2667,2667,2677,2675,2675,2632,2570,2540,2466,2437,2418,2357,2348,2317,2318,2314,2322,2323,2345,2360,2371,2372,2387,2384,2396,2403,2503,2802,2895,3183,3254,3317,3372,3277,3218,3160,3031,2805,2759,2729,2683,2670,2674,2689,2714,2717,2703,2654,2626,2604,2572,2517,2494,2421,2407,2387,2357,2340,2343,2342,2347,2353,2360,2362,2368,2366,2371,2368,2401,2425,2471,2670,2962,3058,3157,3349,3383,3376,3344,3196,2945,2885,2838,2721,2674,2666,2683,2690,2720,2719,2705,2686,2672,2595,2572,2489,2428,2397,2365,2365,2359,2366,2365,2388,2390,2415,2427,2435,2434,2438,2436,2475,2609,2686,2767,3073,3170,3269,3415,3484,3438,3398,3285,3158,2973,2926,2806,2737,2739,2748,2773,2773,2778,2748,2737,2645,2558,2538,2509,2467,2413,2411,2402,2406,2413,2423,2423,2445,2445,2461,2457,2460,2452,2452,2453,2548,2600,2851,2945,3241,3314,3441,3437,3341,3279,3084,3011,2951,2786,2753,2679,2676,2680,2700,2729,2741,2699,2652,2597,2479,2410,2353,2333,2325,2320,2334,2335,2356,2364,2373,2371,2382,2420,2498,2562,2793,2979,3073,3270,3317,3290,3257,3084,2889,2821,2671,2571,2561,2590,2601,2657,2665,2678,2666,2658,2593,2572,2486,2464,2390,2376,2328,2324,2308,2313,2318,2329,2332,2347,2360,2364,2389,2396,2407,2413,2503,2698,2792,2885,3272,3393,3430,3436,3302,3166,3099,3023,2770,2655,2629,2609,2649,2676,2689,2690,2677,2630,2549,2525,2442,2423,2362,2354,2324,2325,2319,2324,2347,2362,2366,2397,2413,2422,2422,2442,2503,2552,2606,2860,2957,3268,3351,3507,3513,3435,3377,3175,3098,2902,2841,2723,2695,2684,2670,2683,2690,2733,2743,2745,2730,2682,2599,2576,2488,2467,2400,2390,2354,2354,2347,2354,2365,2376,2377,2401,2402,2420,2420,2472,2694,2775,3074,3397,3432,3455,3393,3220,3142,3073,2852,2795,2694,2628,2593,2605,2636,2653,2729,2746,2734,2687,2657,2636,2544,2521,2441,2426,2378,2375,2365,2366,2371,2382,2383,2407,2453,2537,2756,3139,3223,3407,3423,3429,3327,3134,3056,2986,2779,2645,2612,2598,2591,2650,2667,2694,2733,2742,2736,2703,2625,2601,2568,2490,2420,2408,2390,2371,2365,2373,2394,2416,2439,2463,2623,2696,2788,3085,3360,3416,3462,3460,3321,3250,3183,2964,2793,2745,2714,2654,2654,2696,2734,2746,2737,2730,2663,2640,2547,2521,2438,2420,2369,2364,2342,2345,2343,2350,2348,2364,2385,2411,2438,2616,2887,2996,3285,3362,3463,3461,3347,3291,3222,3158,2950,2791,2745,2717,2671,2663,2668,2704,2713,2712,2698,2617,2537,2504,2401,2385,2332,2314,2319,2316,2324,2347,2358,2380,2405,2528,2601,2676,2973,3262,3341,3393,3450,3425,3393,3216,3013,2941,2885,2735,2663,2647,2658,2679,2703,2707,2693,2682,2613,2591,2500,2477,2398,2383,2335,2331,2315,2320,2325,2335,2347,2357,2368,2383,2395,2514,2734,2929,3222,3293,3412,3406,3306,3243,3043,2838,2787,2733,2641,2620,2624,2631,2681,2690,2703,2702,2665,2638,2616,2528,2450,2421,2402,2347,2326,2320,2323,2333,2354,2368,2382,2395,2514,2736,2834,2930,3220,3386,3408,3402,3303,3243,3043,2843,2791,2739,2644,2612,2621,2626,2670,2691,2695,2686,2647,2543,2511,2434,2406,2353,2336,2315,2308,2314,2323,2339,2349,2363,2371,2380,2383,2452,2493,2556,2806,3225,3318,3476,3493,3417,3369,3170,2908,2857,2736,2715,2683,2699,2715,2721,2710,2666,2639,2618,2527,2448,2419,2402,2346,2323,2316,2318,2326,2336,2338,2348,2360,2362,2371,2376,2383,2417,2454,2495,2719,3020,3130,3380,3434,3456,3430,3264,3199,3123,2919,2754,2719,2683,2664,2636,2651,2667,2674,2706,2704,2688,2667,2600,2567,2483,2450,2382,2359,2323,2311,2307,2305,2325,2342,2359,2363,2389,2401,2440,2584,2652,2740,3035,3319,3382,3435,3451,3425,3255,3192,3116,2973,2746,2714,2650,2669,2688,2719,2728,2724,2668,2591,2529,2438,2355,2329,2322,2330,2331,2357,2367,2400,2518,2576,2654,3030,3286,3348,3402,3250,3124,2935,2771,2734,2646,2635,2623,2631,2652,2662,2662,2650,2590,2569,2537,2449,2329,2300,2249,2220,2221,2216,2221,2220,2230,2240,2322,2381,2628,2737,3077,3186,3352,3401,3433,3400,3240,3166,3097,2881,2821,2760,2641,2590,2611,2622,2642,2682,2693,2682,2673,2609,2531,2499,2474,2396,2378,2356,2320,2309,2307,2305,2323,2338,2351,2362,2524,2778,2876,3192,3278,3356,3454,3380,3259,3031,2703,2655,2595,2577,2583,2600,2654,2675,2700,2702,2662,2645,2615,2535,2447,2427,2400,2357,2344,2333,2331,2349,2382,2414,2451,2654,2738,3039,3131,3351,3382,3368,3271,3133,3051,2819,2743,2581,2540,2496,2496,2513,2577,2650,2662,2675,2660,2650,2576,2552,2463,2412,2356,2337,2309,2299,2305,2313,2430,2574,2767,3085,3187,3268,3417,3417,3328,3267,3061,2982,2783,2723,2610,2567,2573,2577,2628,2640,2657,2668,2652,2597,2511,2431,2401,2382,2325,2300,2291,2293,2311,2406,2471,2725,2940,3053,3323,3415,3423,3400,3238,3023,2946,2758,2704,2605,2584,2580,2586,2633,2657,2666,2660,2625,2600,2579,2494,2469,2416,2389,2335,2318,2310,2290,2293,2294,2330,2354,2397,2597,2693,3006,3116,3359,3407,3408,3375,3190,3119,2890,2825,2660,2626,2595,2565,2608,2621,2662,2652,2635,2573,2520,2437,2416,2355,2323,2314,2312,2311,2318,2332,2349,2443,2504,2745,2847,3147,3236,3385,3308,3254,3033,2958,2877,2681,2626,2536,2521,2543,2602,2625,2639,2667,2636,6
2867,2830,2817,2730,2657,2620,2576,2540,2465,2427,2401,2328,2317,2287,2286,2280,2286,2286,2289,2279,2278,2249,2245,2249,2378,2450,2546,2884,3013,3129,3415,3515,3515,3493,3380,3220,3172,3118,2995,2899,2881,2859,2831,2819,2813,2768,2750,2697,2660,2629,2514,2482,2415,2382,2358,2295,2285,2267,2257,2257,2250,2257,2253,2258,2253,2255,2249,2241,2217,2212,2201,2194,2279,2349,2431,2791,2930,3221,3360,3476,3708,3735,3717,3679,3546,3492,3445,3298,3176,3133,3101,3007,2943,2919,2854,2823,2730,2690,2578,2536,2504,2408,2348,2328,2320,2292,2291,2286,2279,2280,2268,2269,2249,2246,2219,2215,2185,2181,2152,2148,2136,2122,2158,2205,2262,2564,2691,2981,3134,3271,3599,3717,3720,3698,3585,3531,3484,3325,3282,3193,3150,3117,3017,2996,2953,2931,2918,2856,2837,2781,2714,2595,2519,2427,2353,2342,2323,2304,2290,2293,2286,2287,2279,2275,2276,2266,2255,2243,2228,2225,2210,2193,2191,2187,2203,2319,2590,2700,2828,3189,3438,3473,3481,3446,3307,3245,3084,3030,2916,2882,2866,2825,2828,2821,2777,2760,2660,2628,2504,2474,2376,2357,2320,2302,2298,2281,2287,2284,2297,2296,2302,2295,2288,2294,2310,2468,2746,2866,2979,3303,3375,3474,3500,3498,3432,3385,3344,3193,3068,3025,2996,2915,2879,2866,2862,2826,2773,2741,2715,2606,2576,2537,2452,2384,2375,2358,2342,2343,2332,2336,2332,2338,2334,2330,2332,2323,2307,2297,2317,2341,2521,2607,2714,3055,3359,3424,3477,3515,3445,3404,3286,3241,3126,3084,2987,2954,2888,2865,2818,2796,2779,2699,2610,2574,2546,2452,2432,2368,2358,2324,2322,2306,2307,2297,2299,2291,2285,2265,2262,2251,2233,2225,2239,2300,2510,2825,2947,3058,3340,3395,3458,3469,3458,3388,3349,3318,3199,3168,3092,3021,2923,2876,2824,2763,2696,2663,2638,2538,2512,2477,2406,2380,2346,2338,2323,2305,2296,2288,2290,2283,2281,2274,2267,2259,2250,2231,2230,2220,2210,2200,2200,2191,2204,2258,2302,2372,2652,3022,3137,3251,3466,3522,3504,3486,3380,3347,3227,3195,3124,3085,3056,2962,2943,2877,2863,2798,2779,2688,2661,2556,2528,2440,2423,2370,2364,2352,2344,2334,2337,2332,2329,2322,2313,2313,2304,2288,2277,2260,2255,2241,2213,2199,2194,2196,2315,2381,2469,2790,3026,3312,3429,3397,3358,3321,3175,3130,3042,2998,2966,2881,2867,2850,2832,2810,2803,2786,2717,2684,2612,2580,2542,2449,2404,2360,2347,2343,2341,2342,2339,2331,2323,2319,2290,2282,2291,2319,2468,2549,2736,2837,2944,3207,3344,3353,3352,3264,3223,3071,3024,2939,2902,2877,2833,2835,2848,2856,2846,2792,2759,2727,2615,2582,2489,2467,2411,2401,2388,2367,2340,2333,2323,2325,2404,2455,2515,2755,3004,3072,3124,3195,3186,3170,3052,2951,2806,2760,2692,2642,2647,2666,2677,2669,2659,2585,2557,2448,2416,2322,2299,2274,2231,2206,2204,2197,2195,2214,2329,2484,2692,2936,3062,3176,3443,3491,3525,3520,3499,3430,3386,3346,3214,3090,3044,3005,2893,2812,2786,2724,2699,2623,2590,2489,2452,2419,2324,2255,2233,2220,2181,2173,2142,2135,2114,2117,2180,2229,2448,2545,2643,2936,3134,3172,3192,3184,3111,3082,3048,2945,2909,2835,2801,2766,2678,2609,2574,2521,2478,2402,2322,2295,2270,2204,2186,2158,2145,2134,2111,2100,2096,2093,2085,2084,2079,2075,2072,2060,2057,2052,2042,2033,2032,2031,2031,2035,2037,2040,2049,2053,2061,2069,2080,2160,2208,2267,2502,2594,2783,2874,2956,3131,3185,3197,3201,3199,3168,3154,3123,3108,3093,3044,2996,2982,2968,2933,2921,2884,2852,2796,2733,2711,2651,2632,2587,2573,2551,2541,2532,2511,2504,2498,2483,2479,2471,2466,2462,2450,2441,2436,2433,2424,2417,2414,2412,2421,2434,2515,2558,2713,2770,2826,2960,2989,3019,3023,3020,2991,2949,2936,2923,2890,2879,2863,2857,2851,2840,2835,2822,2798,2786,2774,2735,2723,2697,2685,2676,2651,2636,2631,2627,2618,2616,2612,2607,2604,2597,2595,2591,2584,2575,2573,2561,2558,2563,2576,2645,2679,2795,2835,2925,2942,2946,2937,2921,2869,2848,2797,2781,2751,2744,2739,2740,2751,2753,2755,2750,2732,2721,2691,2678,2671,2645,2640,2625,2625,2619,2617,2619,2615,2617,2614,2612,2603,2597,2594,2592,2581,2580,2575,2577,2581,2639,2667,2788,2829,2914,2951,2976,3013,2986,2971,2949,2896,2876,2864,2825,2819,2806,2799,2799,2795,2801,2799,2802,2791,2788,2761,2755,2724,2707,2691,2688,2670,2670,2657,2658,2650,2651,2647,2646,2643,2640,2641,2636,2634,2627,2628,2622,2618,2613,2625,2633,2674,2705,2734,2850,2947,2972,2983,2987,2972,2928,2906,2863,2828,2824,2814,2805,2801,2804,2804,2807,2802,2802,2783,2758,2744,2737,2705,2683,2674,2672,2656,2657,2652,2650,2644,2649,2645,2646,2640,2644,2640,2639,2633,2625,2622,2619,2632,2650,2666,2753,2784,2821,2912,2961,2958,2957,2935,2903,2871,2851,2840,2802,2797,2783,2785,2788,2802,2801,2806,2803,2795,2792,2761,2754,2720,2714,2702,2687,2682,2676,2677,2673,2678,2677,2681,2678,2681,2675,2674,2663,2667,2666,2706,2775,2809,2837,2924,2940,2959,2964,2957,2929,2912,2872,2856,2830,2821,2820,2812,2817,2821,2820,2827,2826,2828,2817,2807,2804,2772,2746,2734,2731,2709,2708,2699,2696,2690,2685,2687,2680,2680,2673,2669,2662,2671,2676,2739,2826,2863,2890,2944,2966,2974,2983,2929,2876,2853,2843,2834,2822,2798,2776,2759,2754,2720,2718,2691,2692,2682,2677,2662,2664,2649,2644,2638,2630,2623,2614,2605,2586,2586,2577,2570,2574,2592,2605,2696,2804,2876,2954,2958,2968,2953,2949,2915,2910,2879,2877,2855,2854,2846,2839,2826,2827,2805,2803,2784,2767,2762,2722,2716,2701,2679,2653,2644,2636,2620,2622,2614,2606,2588,2588,2578,2567,2558,2548,2540,2546,2552,2570,2638,2743,2773,2810,2874,2897,2889,2886,2849,2815,2798,2792,2763,2762,2750,2754,2752,2756,2750,2742,2711,2706,2689,2662,2630,2616,2604,2595,2578,2573,2565,2560,2545,2546,2537,2529,2521,2524,2527,2582,2674,2716,2753,2864,2885,2911,2933,2937,2912,2907,2871,2866,2847,2835,2832,2807,2800,2793,2795,2777,2745,2739,2696,2689,2671,2641,2626,2607,2603,2590,2573,2552,2550,2540,2529,2509,2507,2496,2485,2475,2475,2455,2449,2441,2445,2460,2536,2566,2610,2742,2869,2895,2924,2952,2949,2936,2933,2914,2900,2896,2882,2860,2832,2831,2809,2800,2786,2752,2745,2699,2690,2672,2634,2617,2589,2575,2557,2554,2543,2529,2519,2507,2497,2487,2478,2469,2460,2454,2446,2439,2440,2432,2431,2430,2442,2498,2533,2612,2652,2702,2827,2910,2918,2930,2920,2897,2882,2875,2843,2824,2814,2813,2801,2803,2798,2793,2784,2766,2760,2745,2706,2660,2652,2636,2609,2597,2579,2570,2559,2551,2551,2537,2530,2523,2524,2507,2496,2489,2490,2497,2514,2557,2584,2621,2734,2776,2844,2867,2889,2910,2901,2882,2853,2812,2795,2767,2750,2750,2746,2747,2732,2727,2714,2678,2660,2619,2601,2566,2553,2529,2520,2511,2504,2501,2494,2496,2491,2488,2483,2485,2486,2533,2558,2593,2715,2766,2855,2892,2930,2989,2994,2990,2958,2912,2904,2871,2865,2855,2841,2821,2817,2806,2773,2755,2708,2688,2640,2593,2567,2541,2530,2513,2505,2495,2487,2485,2468,2458,2451,2453,2473,2553,2586,2631,2769,2894,2921,2947,2972,2950,2942,2899,2889,2874,2840,2817,2790,2759,2712,2670,2616,2602,2583,2542,2526,2496,2485,2469,2466,2458,2447,2441,2434,2430,2424,2418,2412,2407,2402,2399,2420,2434,2527,2566,2614,2762,2890,2915,2937,2955,2937,2923,2911,2868,2857,2822,2815,2793,2791,2787,2780,2771,2745,2732,2686,2669,2620,2604,2565,2533,2527,2519,2505,2501,2494,2491,2485,2479,2477,2470,2466,2464,2469,2479,2540,2645,2684,2726,2835,2894,2901,2903,2882,2869,2854,2810,2772,2763,2743,2740,2738,2738,2731,2726,2700,2688,2648,2635,2597,2586,2559,2545,2530,2527,2518,2514,2507,2498,2494,2491,2483,2484,2509,2529,2623,2665,2711,2852,2959,2982,2999,3011,2987,2976,2963,2922,2882,2871,2858,2829,2807,2801,2794,2767,2755,2742,2701,2658,2643,2630,2598,2565,2559,2545,2534,2530,2527,2522,2515,2510,2505,2501,2492,2491,2493,2528,2552,2618,2660,2705,2844,2952,2992,3006,2996,2964,2939,2928,2914,2901,2863,2831,2822,2815,2790,2762,2751,2740,2711,2681,2637,2598,2586,2559,2551,2533,2529,2525,2514,2506,2503,2500,2489,2486,2474,2471,2463,2466,2528,2636,2682,2729,2868,2974,2984,2981,2949,2935,2921,2883,2848,2831,2819,2807,2797,2771,2758,2747,2683,2635,2624,2585,2557,2548,2542,2523,2510,2505,2503,2490,2487,2481,2471,2456,2455,2448,2448,2502,2528,2651,2794,2841,2879,2961,2970,2976,2966,2935,2919,2883,2868,2839,2827,2811,2804,2794,2784,2759,2731,2681,2635,2616,2605,2563,2536,2526,2522,2505,2505,2494,2495,2484,2483,2471,2470,2456,2449,2440,2425,2425,2420,2422,2427,2458,2490,2522,2671,2847,2909,2958,3072,3108,3112,3107,3083,3042,3017,2981,2965,2954,2920,2912,2882,2872,2831,2817,2761,2743,2682,2633,2613,2601,2562,2554,2542,2514,2494,2484,2457,2439,2430,2423,2412,2403,2399,2408,2457,2582,2634,2699,2896,3065,3101,3169,3171,3154,3138,3094,3075,3062,3013,3002,2963,2956,2926,2907,2876,2807,2739,2721,2642,2589,2562,2536,2523,2505,2485,2483,2474,2465,2448,2439,2434,2422,2415,2412,2408,2419,2495,2531,2583,2756,2945,2992,3040,3108,3118,3108,3090,3077,3009,2950,2929,2917,2877,2875,2866,2865,2851,2850,2837,2811,2776,2716,2688,2627,2603,2556,2537,2509,2496,2484,2475,2472,2465,2463,2458,2444,2446,2430,2422,2414,2440,2454,2573,2623,2689,2894,2966,3122,3162,3204,3206,3164,3150,3080,3063,3002,2964,2948,2944,2916,2894,2877,2869,2807,2789,2762,2692,2616,2601,2577,2534,2495,2491,2479,2466,2448,2440,2430,2422,2420,2402,2391,2383,2384,2371,2366,2358,2361,2365,2436,2473,2528,2736,2994,3144,3290,3321,3333,3329,3268,3249,3220,3151,3105,3062,3038,2993,2945,2935,2915,2881,2840,2771,2720,2639,2620,2552,2509,2492,2486,2453,2438,2427,2414,2403,2388,2377,14
2371,2363,2360,2355,2394,2419,2508,2571,2632,2707,2924,3044,3091,3118,3156,3147,3142,3093,3080,3016,2999,2924,2905,2831,2816,2755,2744,2711,2690,2677,2615,2601,2537,2523,2465,2454,2436,2404,2385,2363,2355,2347,2342,2344,2338,2336,2331,2345,2357,2472,2525,2594,2819,3035,3083,3126,3174,3176,3159,3129,3071,2981,2960,2911,2881,2818,2794,2780,2729,2717,2697,2647,2585,2569,2546,2494,2444,2420,2396,2373,2372,2365,2353,2352,2347,2347,2342,2349,2358,2456,2506,2716,2793,3021,3075,3174,3177,3154,3132,3068,3041,3020,2950,2890,2868,2853,2803,2767,2749,2737,2681,2665,2624,2598,2580,2517,2482,2443,2428,2404,2394,2383,2371,2373,2367,2363,2356,2355,2363,2372,2470,2645,2721,2793,3002,3049,3092,3137,3096,3082,3015,2970,2903,2826,2768,2748,2737,2689,2647,2626,2613,2551,2536,2512,2463,2416,2407,2392,2371,2351,2350,2343,2341,2334,2337,2332,2339,2343,2424,2464,2583,2656,2726,2806,3007,3126,3137,3135,3108,3048,3032,2964,2900,2873,2855,2789,2776,2726,2716,2685,2665,2653,2595,2543,2520,2507,2456,2421,2407,2402,2376,2375,2366,2360,2350,2353,2348,2349,2339,2343,2337,2367,2467,2527,2585,2812,3016,3073,3109,3168,3164,3162,3120,3073,3049,3032,2964,2901,2874,2858,2802,2762,2743,2732,2679,2665,2643,2590,2531,2520,2501,2463,2428,2424,2413,2400,2383,2384,2378,2375,2367,2369,2366,2366,2363,2390,2409,2534,2589,2797,2863,3041,3077,3132,3127,3099,3080,3032,3010,2996,2962,2926,2877,2867,2829,2801,2785,2775,2724,2673,2650,2634,2578,2565,2521,2513,2494,2482,2477,2467,2456,2449,2444,2439,2438,2432,2431,2429,2470,2496,2643,2702,2909,3076,3118,3140,3164,3154,3147,3096,3044,3021,3005,2944,2890,2869,2857,2813,2775,2758,2746,2692,2677,2654,2604,2569,2521,2489,2474,2458,2444,2433,2420,2421,2414,2412,2402,2404,2402,2450,2479,2640,2704,2931,2997,3154,3179,3206,3194,3156,3134,3082,3059,3001,2975,2957,2891,2840,2820,2808,2757,2708,2686,2670,2606,2591,2532,2520,2472,2465,2443,2430,2427,2402,2402,2393,2389,2379,2383,2377,2377,2368,2373,2375,2440,2592,2665,2736,2980,3048,3113,3222,3240,3226,3217,3161,3107,3082,3064,2990,2970,2897,2880,2821,2808,2776,2740,2679,2663,2638,2580,2520,2508,2490,2454,2440,2419,2409,2396,2382,2383,2378,2375,2371,2368,2365,2379,2476,2525,2736,2812,3039,3094,3198,3204,3206,3163,3120,3102,3077,3014,2989,2971,2909,2842,2832,2788,2721,2704,2638,2620,2554,2517,2487,2477,2442,2436,2415,2414,2406,2399,2389,2389,2383,2384,2414,2448,2485,2666,2889,2967,3031,3171,3189,3203,3178,3124,3099,3081,3006,2936,2910,2890,2822,2808,2775,2757,2745,2692,2614,2597,2531,2515,2491,2446,2404,2397,2384,2368,2359,2353,2353,2346,2344,2335,2337,2335,2380,2409,2577,2645,2891,2965,3149,3180,3216,3206,3162,3121,3050,3002,2929,2850,2831,2769,2756,2701,2689,2651,2628,2613,2546,2530,2468,2455,2406,2398,2376,2363,2360,2339,2334,2331,2326,2323,2323,2345,2364,2574,2829,2914,3195,3273,3216,3173,3104,2997,2966,2888,2800,2742,2669,2653,2585,2542,2484,2420,2404,2376,2349,2341,2329,2328,2325,2326,2319,2322,2318,2340,2392,2556,2894,2985,3186,3268,3265,3222,3194,3116,3086,3014,2987,2921,2897,2849,2831,2821,2774,2762,2703,2684,2612,2548,2523,2507,2454,2444,2409,2404,2383,2381,2375,2371,2363,2364,2360,2356,2367,2388,2415,2578,2822,2916,2999,3208,3280,3282,3266,3198,3166,3141,3053,2976,2946,2924,2848,2769,2756,2704,2651,2628,2611,2542,2524,2499,2446,2425,2388,2373,2352,2334,2335,2328,2327,2321,2324,2319,2321,2334,2356,2383,2551,2623,2892,2979,3200,3241,3295,3286,3235,3206,3131,3101,3024,2992,2911,2880,2858,2787,2736,2714,2701,2639,2579,2553,2536,2473,2425,2408,2399,2363,2359,2335,2335,2322,2324,2319,2320,2317,2321,2317,2319,2315,2327,2346,2369,2526,2875,2967,3217,3334,3348,3342,3314,3295,3266,3244,3161,3084,3052,3028,2939,2916,2840,2824,2764,2750,2711,2685,2668,2597,2577,2552,2492,2426,2410,2387,2371,2355,2347,2342,2334,2337,2334,2338,2334,2337,2334,2356,2374,2410,2580,2843,2934,3027,3237,3318,3303,3224,3197,3103,3023,2994,2973,2906,2858,2840,2829,2782,2730,2704,2685,2610,2544,2518,2501,2448,2415,2402,2396,2385,2376,2376,2369,2365,2359,2361,2355,2355,2387,2420,2459,2658,2831,3088,3263,3287,3305,3275,3203,3171,3146,3058,3034,2981,2952,2930,2856,2803,2784,2770,2714,2655,2629,2608,2532,2485,2431,2401,2362,2343,2334,2327,2327,2321,2322,2315,2318,2317,2376,2412,2611,2693,2972,3055,3245,3274,3293,3275,3209,3178,3099,3066,3042,2950,2868,2838,2818,2752,2738,2701,2665,2599,2581,2508,2446,2422,2407,2357,2325,2313,2310,2291,2285,2281,2285,2280,2283,2292,2314,2337,2505,2765,2868,2963,3215,3329,3343,3335,3285,3254,3231,3143,3060,3025,2998,2904,2879,2802,2783,2744,2704,2664,2638,2619,2546,2482,2457,2441,2385,2375,2359,2331,2307,2306,2298,2294,2285,2288,2283,2284,2277,2279,2274,2283,2292,2403,2462,2719,2816,3109,3250,3340,3344,3292,3213,3181,3155,3069,2989,2959,2935,2843,2784,2768,2709,2689,2617,2597,2525,2506,2467,2433,2392,2384,2358,2355,2347,2341,2333,2336,2331,2333,2326,2328,2323,2323,2361,2401,2445,2663,2939,3034,3113,3280,3300,3310,3261,3168,3130,3100,3005,2932,2907,2891,2839,2804,2788,2779,2727,2711,2685,2619,2545,2526,2501,2454,2415,2409,2397,2383,2369,2369,2363,2363,2360,2351,2357,2372,2389,2530,2596,2856,2945,3186,3236,3310,3302,3293,3214,3154,3126,3093,3068,2980,2906,2878,2819,2797,2785,2731,2679,2655,2637,2563,2498,2473,2457,2403,2370,2358,2354,2334,2335,2328,2326,2319,2322,2316,2316,2335,2363,2397,2510,2589,2856,2956,3043,3255,3323,3325,3308,3243,3211,3185,3096,3013,2981,2955,2868,2799,2774,2758,2698,2640,2614,2595,2523,2504,2479,2424,2375,2366,2353,2331,2311,2312,2305,2301,2297,2294,2297,2293,2294,2287,2290,2287,2315,2340,2503,2579,2868,2967,3229,3285,3354,3370,3365,3315,3286,3204,3172,3089,3057,3030,2940,2916,2839,2821,2760,2705,2680,2661,2590,2525,2484,2429,2418,2380,2374,2350,2349,2341,2337,2328,2329,2325,2326,2319,2321,2317,2321,2360,2399,2668,2758,2858,3136,3271,3317,3340,3354,3308,3215,3177,3146,3047,3022,2943,2925,2866,2826,2810,2801,2767,2746,2731,2705,2660,2611,2563,2544,2518,2465,2420,2413,2400,2384,2374,2362,2359,2350,2351,2345,2347,2351,2371,2488,2718,2806,3089,3164,3316,3331,3314,3287,3199,3163,3071,3038,3012,2925,2903,2831,2816,2781,2749,2691,2676,2607,2541,2514,2498,2437,2393,2377,2371,2341,2339,2329,2321,2316,2312,2315,2310,2309,2301,2308,2313,2408,2613,2708,2803,3100,3179,3338,3353,3339,3289,3195,3108,3074,3048,2987,2954,2873,2843,2823,2757,2705,2681,2664,2596,2550,2504,2424,2411,2357,2326,2322,2313,2301,2288,2288,2282,2277,2271,2273,2266,2260,2264,2271,2295,2376,2434,2691,2789,2896,3177,3301,3342,3361,3355,3332,3255,3223,3139,3106,3079,2988,2910,2883,2864,2805,2756,2734,2717,2648,2582,2556,2473,2429,2411,2403,2373,2369,2360,2351,2343,2345,2341,2342,2336,2338,2333,2355,2459,2523,2593,2870,2966,3065,3227,3333,3371,3367,3359,3278,3180,3144,3055,3024,2951,2926,2910,2859,2819,2802,2788,2725,2706,2678,2607,2534,2517,2494,2448,2408,2401,2370,2359,2352,2351,2339,2332,2327,2320,2325,2334,2445,2504,2763,2859,3152,3225,3370,3384,3377,3358,3323,3306,3283,3266,3186,3161,3057,2989,2896,2809,2756,2677,2586,2562,2476,2409,2385,2371,2350,2321,2313,2282,2279,2270,2263,2252,2252,2246,2242,2230,2232,2232,2291,2341,2658,2757,2867,3073,3157,3331,3351,3362,3343,3295,3204,3176,3116,3053,2989,2953,2926,2838,2818,2794,2743,2687,2648,2582,2507,2487,2462,2421,2407,2359,2352,2338,2317,2299,2299,2288,2290,2285,2281,2281,2277,2278,2343,2515,2690,2994,3170,3320,3336,3313,3230,3194,3163,3066,3039,2956,2934,2870,2856,2811,2801,2753,2738,2698,2672,2651,2575,2555,2529,2472,2423,2402,2381,2363,2358,2355,2348,2350,2345,2350,2406,2453,2507,2746,2838,3196,3339,3355,3360,3308,3226,3194,3166,3072,2984,2952,2872,2846,2827,2804,2755,2679,2654,2588,2516,2496,2472,2421,2378,2369,2355,2336,2318,2317,2306,2307,2299,2300,2303,2434,2496,2760,2960,3214,3343,3352,3357,3307,3233,3203,3178,3085,3057,2954,2864,2834,2813,2747,2692,2670,2609,2563,2490,2431,2410,2397,2344,2314,2310,2288,2274,2275,2266,2260,2262,2261,2265,2283,2399,2635,2728,2833,3122,3312,3338,3354,3337,3276,3248,3173,3142,3057,3023,2935,2903,2880,2810,2794,2735,2718,2697,2636,2564,2543,2519,2461,2410,2400,2366,2361,2339,2337,2321,2317,2307,2306,2303,2304,2301,2302,2301,2309,2379,2565,2646,2936,3029,3119,3299,3330,3333,3316,3240,3161,3132,3035,2971,2948,2899,2868,2819,2761,2735,2712,2633,2609,2538,2519,2499,2456,2424,2418,2397,2393,2380,2378,2367,2367,2363,2351,2344,2339,2365,2496,2563,2923,3187,3249,3349,3351,3313,3288,3214,3186,3163,3134,3081,3055,2969,2944,2915,2850,2793,2753,2691,2591,2562,2495,2470,2402,2378,2369,2357,2338,2330,2320,2314,2307,2302,2296,2291,2283,2278,2274,2286,2302,2335,2510,2794,2898,3006,3269,3330,3406,3406,3378,3333,3252,3228,3143,3115,3017,2988,2895,2872,2844,2780,2712,2691,2614,2590,2512,2491,2410,2364,2354,2320,2306,2291,2277,2274,2262,2253,2248,2241,2235,2230,2234,2254,2371,2618,2719,2831,3248,3415,3438,3394,3304,3245,3159,3040,3009,2924,2899,2834,2755,2664,2588,2564,2538,2472,2451,2403,2388,2356,2346,2332,2328,2323,2312,2308,2302,2297,2294,2292,2291,2288,2286,2284,2331,2479,2554,2831,2932,3252,3330,3325,3216,3106,3071,2977,2902,2880,2860,2798,2759,2746,2675,2653,2555,2484,2462,2408,2382,2355,2351,2338,2333,2326,2326,2318,2311,2309,2306,2313,2390,2441,26
